Data from oakcork_FLMT105791__0__17-26-35-067.txt Node

Date: Mon Mar 20 17:26:35 GMT 2023
User: antho
Spectrometer: FLMT10579
Trigger mode: 0
Integration Time (sec): 1.000000E-1
Scans to average: 10
Electric dark correction enabled: true
Nonlinearity correction enabled: false
Boxcar width: 0
XAxis mode: Wavelengths
Number of Pixels in Spectrum: 3648
>>>>>Begin Spectral Data<<<<<
345.248	-155.61
345.464	-155.61
345.681	-155.61
345.898	-191.45
346.114	-173.82
346.331	-44.79
346.548	27.87
346.764	0.94
346.981	-26.58
347.197	-13.59
347.414	40.65
347.631	-6.23
347.847	47.24
348.064	-1
348.28	38.72
348.497	-56.03
348.713	-7.2
348.93	26.32
349.146	37.17
349.363	-1
349.579	23.02
349.796	22.64
350.012	-15.34
350.229	38.14
350.445	-14.18
350.661	-30.64
350.878	9.66
351.094	2.29
351.311	38.72
351.527	9.66
351.743	-28.32
351.96	25.54
352.176	33.87
352.392	27.29
352.609	32.9
352.825	-11.08
353.041	18.95
353.257	-5.26
353.474	-8.94
353.69	5.39
353.906	8.3
354.122	-11.27
354.339	29.22
354.555	-6.43
354.771	11.98
354.987	74.37
355.203	51.5
355.42	-5.26
355.636	19.54
355.852	4.04
356.068	-6.23
356.284	-45.37
356.5	80.57
356.716	22.05
356.932	1.71
357.148	42.4
357.364	-18.24
357.58	34.84
357.796	54.41
358.012	51.7
358.228	10.62
358.444	-47.69
358.66	61.58
358.876	27.09
359.092	-2.94
359.308	20.5
359.524	46.08
359.74	2.1
359.956	-30.84
360.172	27.67
360.388	72.24
360.604	-3.33
360.819	76.5
361.035	29.22
361.251	26.12
361.467	9.66
361.683	36.59
361.898	22.25
362.114	52.28
362.33	3.26
362.546	66.62
362.762	-1.39
362.977	27.29
363.193	1.32
363.409	39.69
363.624	-38.2
363.84	7.52
364.056	-3.52
364.271	46.85
364.487	23.22
364.703	19.92
364.918	-4.88
365.134	5.01
365.35	25.15
365.565	106.53
365.781	41.04
365.996	31.74
366.212	66.81
366.427	42.59
366.643	23.99
366.858	28.25
367.074	-12.82
367.289	58.29
367.505	109.43
367.72	-24.83
367.936	16.05
368.151	33.68
368.367	43.75
368.582	18.57
368.798	12.95
369.013	47.82
369.228	42.4
369.444	26.9
369.659	73.4
369.874	15.08
370.09	76.5
370.305	-20.38
370.52	13.53
370.736	25.93
370.951	33.1
371.166	35.23
371.381	66.23
371.597	40.46
371.812	-19.79
372.027	-6.43
372.242	26.12
372.458	70.88
372.673	52.28
372.888	31.94
373.103	46.08
373.318	103.23
373.533	38.91
373.749	45.5
373.964	9.85
374.179	63.52
374.394	-0.42
374.609	51.7
374.824	-1.97
375.039	92.58
375.254	-7.01
375.469	86.19
375.684	25.93
375.899	31.35
376.114	35.62
376.329	29.8
376.544	66.23
376.759	54.02
376.974	-3.52
377.189	-0.81
377.404	34.26
377.619	65.45
377.834	0.74
378.049	-9.14
378.264	-1.97
378.478	54.02
378.693	1.91
378.908	49.37
379.123	9.46
379.338	54.99
379.553	36
379.767	48.79
379.982	38.52
380.197	54.02
380.412	13.53
380.626	58.48
380.841	106.33
381.056	31.74
381.271	87.93
381.485	-12.24
381.7	12.76
381.915	52.28
382.129	42.59
382.344	28.64
382.559	12.76
382.773	79.02
382.988	-8.94
383.202	58.67
383.417	-12.24
383.632	113.7
383.846	32.52
384.061	33.68
384.275	41.24
384.49	48.99
384.704	54.02
384.919	59.45
385.133	16.63
385.348	42.79
385.562	9.66
385.777	77.85
385.991	27.09
386.206	17.4
386.42	17.79
386.634	69.33
386.849	47.05
387.063	48.79
387.277	-2.36
387.492	33.68
387.706	13.92
387.92	4.81
388.135	52.09
388.349	57.51
388.563	38.52
388.778	24.96
388.992	57.32
389.206	69.14
389.42	109.82
389.635	43.75
389.849	69.91
390.063	77.47
390.277	48.21
390.491	109.24
390.706	85.8
390.92	79.4
391.134	63.13
391.348	79.02
391.562	16.05
391.776	62.74
391.99	7.72
392.205	68.75
392.419	16.63
392.633	31.94
392.847	100.91
393.061	46.66
393.275	135.98
393.489	37.94
393.703	57.51
393.917	85.99
394.131	26.7
394.345	64.29
394.559	87.54
394.773	52.09
394.986	69.52
395.2	57.12
395.414	100.52
395.628	33.1
395.842	61.58
396.056	39.3
396.27	2.49
396.484	64.29
396.697	53.44
396.911	96.84
397.125	62.74
397.339	93.94
397.553	58.48
397.766	127.26
397.98	102.85
398.194	98.97
398.408	71.65
398.621	86.77
398.835	104.2
399.049	102.85
399.262	110.79
399.476	115.25
399.69	102.46
399.903	157.48
400.117	73.98
400.331	127.07
400.544	63.32
400.758	191.39
400.971	98.78
401.185	154.97
401.398	50.54
401.612	154.77
401.826	125.9
402.039	109.82
402.253	86.77
402.466	117.18
402.68	85.22
402.893	122.61
403.106	135.78
403.32	71.85
403.533	145.08
403.747	100.52
403.96	108.47
404.174	124.55
404.387	67.39
404.6	119.12
404.814	172.21
405.027	119.12
405.24	120.09
405.454	96.45
405.667	152.64
405.88	41.62
406.094	117.57
406.307	116.02
406.52	144.5
406.733	81.34
406.947	58.67
407.16	152.06
407.373	170.66
407.586	81.54
407.799	66.62
408.012	156.71
408.226	120.87
408.439	156.52
408.652	66.42
408.865	139.85
409.078	169.5
409.291	123
409.504	73.98
409.717	135.78
409.93	128.03
410.143	119.9
410.357	77.27
410.57	88.12
410.783	102.07
410.996	119.51
411.209	133.46
411.421	150.12
411.634	139.47
411.847	98.2
412.06	119.12
412.273	112.73
412.486	129.2
412.699	205.73
412.912	110.6
413.125	166.59
413.338	137.14
413.55	155.74
413.763	92
413.976	142.95
414.189	102.65
414.402	118.93
414.615	177.83
414.827	112.53
415.04	159.23
415.253	145.67
415.466	144.12
415.678	183.25
415.891	128.23
416.104	158.45
416.316	114.47
416.529	113.5
416.742	165.04
416.954	183.64
417.167	148.77
417.38	136.95
417.592	183.83
417.805	97.04
418.017	92.58
418.23	176.86
418.442	118.35
418.655	136.75
418.868	145.67
419.08	195.46
419.293	203.79
419.505	148.18
419.718	179.38
419.93	197.98
420.142	143.15
420.355	182.09
420.567	195.26
420.78	161.17
420.992	128.42
421.205	236.73
421.417	122.42
421.629	142.37
421.842	111.18
422.054	119.9
422.266	153.22
422.479	193.13
422.691	149.35
422.903	176.67
423.115	122.8
423.328	130.55
423.54	160.58
423.752	172.4
423.964	144.12
424.177	170.66
424.389	142.37
424.601	268.5
424.813	172.02
425.025	190.61
425.238	182.87
425.45	160.58
425.662	149.35
425.874	462.25
426.086	153.8
426.298	163.49
426.51	176.28
426.722	146.63
426.934	158.07
427.146	199.72
427.358	144.89
427.57	189.26
427.782	156.32
427.994	159.42
428.206	160.97
428.418	151.09
428.63	209.6
428.842	203.79
429.054	180.35
429.266	215.03
429.478	155.55
429.69	173.37
429.902	129.78
430.114	191.97
430.325	183.83
430.537	147.6
430.749	159.03
430.961	90.45
431.173	137.53
431.384	200.88
431.596	74.37
431.808	134.62
432.02	177.25
432.231	203.21
432.443	222
432.655	183.83
432.867	152.64
433.078	203.21
433.29	236.53
433.502	228.78
433.713	240.41
433.925	186.35
434.136	228.78
434.348	142.18
434.56	134.04
434.771	266.95
434.983	144.5
435.194	158.84
435.406	181.32
435.617	246.03
435.829	280.9
436.04	248.74
436.252	228.78
436.463	246.22
436.675	265.79
436.886	246.61
437.098	265.6
437.309	268.89
437.521	209.8
437.732	239.25
437.943	244.48
438.155	200.11
438.366	158.07
438.578	261.33
438.789	191.78
439	266.37
439.211	228.2
439.423	228.78
439.634	209.99
439.845	250.29
440.057	232.08
440.268	270.05
440.479	215.8
440.69	263.46
440.902	219.87
441.113	240.8
441.324	220.45
441.535	269.28
441.746	303.76
441.957	227.43
442.168	246.8
442.38	284
442.591	281.29
442.802	223.55
443.013	239.63
443.224	297.37
443.435	240.8
443.646	233.82
443.857	282.64
444.068	245.06
444.279	247.38
444.49	338.64
444.701	258.62
444.912	364.21
445.123	292.91
445.334	277.03
445.545	269.08
445.756	266.76
445.967	242.15
446.178	291.56
446.388	319.46
446.599	295.63
446.81	275.09
447.021	248.74
447.232	318.49
447.443	316.16
447.653	256.68
447.864	324.88
448.075	274.9
448.286	289.04
448.496	285.94
448.707	309.19
448.918	302.21
449.129	372.93
449.339	258.04
449.55	319.07
449.761	297.56
449.971	322.56
450.182	283.42
450.393	331.08
450.603	297.18
450.814	334.76
451.024	319.65
451.235	376.61
451.446	355.11
451.656	399.67
451.867	278.96
452.077	366.92
452.288	383.39
452.498	375.64
452.709	313.64
452.919	326.04
453.13	305.89
453.34	340.77
453.55	256.1
453.761	323.33
453.971	325.46
454.182	376.42
454.392	331.47
454.602	364.02
454.813	366.54
455.023	355.49
455.233	283.03
455.444	337.67
455.654	277.61
455.864	320.81
456.075	313.26
456.285	295.04
456.495	315.78
456.705	350.84
456.916	365.37
457.126	416.33
457.336	328.76
457.546	284.39
457.756	296.4
457.967	379.71
458.177	344.64
458.387	345.61
458.597	296.21
458.807	333.79
459.017	314.23
459.227	317.13
459.437	343.48
459.647	377
459.857	378.16
460.068	326.43
460.278	380.49
460.488	346.97
460.698	425.82
460.908	341.74
461.117	298.73
461.327	323.91
461.537	357.82
461.747	364.41
461.957	338.25
462.167	458.76
462.377	386.88
462.587	375.64
462.797	384.56
463.007	364.99
463.216	412.07
463.426	425.05
463.636	405.67
463.846	321.98
464.056	343.29
464.265	396.76
464.475	349.68
464.685	386.3
464.895	402.19
465.104	353.94
465.314	408.19
465.524	380.1
465.733	360.92
465.943	446.36
466.153	472.9
466.362	412.46
466.572	389.4
466.782	355.11
466.991	369.25
467.201	432.61
467.41	365.18
467.62	407.03
467.829	385.14
468.039	420.59
468.249	383.97
468.458	386.49
468.668	425.44
468.877	428.54
469.086	445.01
469.296	470.77
469.505	383.59
469.715	487.05
469.924	426.41
470.134	482.79
470.343	454.5
470.552	388.04
470.762	409.36
470.971	392.11
471.18	412.65
471.39	401.41
471.599	371.38
471.808	473.29
472.018	396.37
472.227	462.05
472.436	479.1
472.645	454.11
472.855	428.73
473.064	494.22
473.273	479.49
473.482	506.42
473.691	492.86
473.901	496.74
474.11	460.31
474.319	543.04
474.528	469.8
474.737	526.96
474.946	504.87
475.155	507.2
475.364	520.18
475.573	501.77
475.783	498.09
475.992	511.27
476.201	538.39
476.41	472.52
476.619	449.46
476.828	507.59
477.037	474.65
477.245	468.45
477.454	539.36
477.663	505.65
477.872	508.17
478.081	577.53
478.29	506.23
478.499	601.55
478.708	545.95
478.917	559.32
479.125	550.4
479.334	558.35
479.543	539.17
479.752	541.88
479.961	581.02
480.169	598.26
480.378	525.22
480.587	692.42
480.796	615.89
481.004	583.92
481.213	603.88
481.422	635.65
481.63	608.14
481.839	626.93
482.048	671.11
482.256	598.26
482.465	607.37
482.674	627.13
482.882	631.78
483.091	687.77
483.299	638.36
483.508	643.6
483.716	623.45
483.925	646.31
484.134	602.52
484.342	591.67
484.551	673.24
484.759	674.01
484.967	660.65
485.176	716.25
485.384	692.23
485.593	690.68
485.801	661.23
486.01	635.85
486.218	598.07
486.426	554.67
486.635	560.09
486.843	572.1
487.051	610.08
487.26	596.13
487.468	650.76
487.676	676.34
487.885	624.22
488.093	658.51
488.301	712.57
488.509	670.53
488.717	701.33
488.926	695.91
489.134	658.9
489.342	704.24
489.55	634.68
489.758	691.65
489.967	681.57
490.175	805.76
490.383	689.71
490.591	797.24
490.799	684.67
491.007	765.27
491.215	720.9
491.423	698.62
491.631	709.47
491.839	728.46
492.047	773.41
492.255	682.73
492.463	713.15
492.671	712.57
492.879	779.03
493.087	747.25
493.295	739.11
493.503	740.47
493.711	772.63
493.919	800.73
494.127	798.21
494.334	775.93
494.542	713.15
494.75	780.19
494.958	742.79
495.166	813.9
495.374	770.11
495.581	793.56
495.789	796.27
495.997	828.04
496.205	785.81
496.412	791.04
496.62	798.21
496.828	814.48
497.035	805.76
497.243	817.19
497.451	807.7
497.658	800.14
497.866	816.22
498.074	864.27
498.281	773.6
498.489	891.98
498.696	808.28
498.904	786.78
499.112	766.43
499.319	869.7
499.527	800.34
499.734	876.09
499.942	788.52
500.149	804.79
500.357	818.16
500.564	784.06
500.771	782.32
500.979	790.65
501.186	786.58
501.394	833.47
501.601	807.51
501.808	840.06
502.016	800.34
502.223	774.76
502.43	817.77
502.638	811.77
502.845	775.93
503.052	852.65
503.26	820.1
503.467	907.87
503.674	844.71
503.881	853.81
504.089	901.28
504.296	879.19
504.503	802.66
504.71	842.96
504.917	797.24
505.125	848.39
505.332	835.02
505.539	852.84
505.746	931.31
505.953	902.44
506.16	890.24
506.367	934.6
506.574	947.97
506.781	938.67
506.988	851.87
507.195	881.32
507.402	856.72
507.609	933.83
507.816	865.44
508.023	868.15
508.23	861.95
508.437	841.99
508.644	929.18
508.851	941.19
509.058	928.79
509.265	903.8
509.472	928.99
509.679	997.77
509.885	899.54
510.092	916.59
510.299	935.77
510.506	931.89
510.713	927.05
510.92	922.79
511.126	940.61
511.333	997.77
511.54	942.94
511.746	1012.49
511.953	966.57
512.16	997.96
512.367	959.4
512.573	940.22
512.78	991.37
512.987	936.74
513.193	942.94
513.4	883.26
513.606	913.29
513.813	949.14
514.02	930.15
514.226	1020.24
514.433	993.89
514.639	893.14
514.846	962.12
515.052	905.35
515.259	969.87
515.465	967.35
515.672	941.39
515.878	1039.81
516.085	931.12
516.291	1035.93
516.497	956.5
516.704	924.14
516.91	919.88
517.117	892.37
517.323	804.02
517.529	886.75
517.736	877.26
517.942	915.62
518.148	927.82
518.354	954.75
518.561	926.85
518.767	933.44
518.973	945.26
519.179	974.32
519.386	954.37
519.592	954.95
519.798	976.07
520.004	1014.23
520.21	993.89
520.417	1039.81
520.623	1051.05
520.829	1073.71
521.035	1034.58
521.241	1037.68
521.447	1080.11
521.653	1139.78
521.859	1066.35
522.065	1070.03
522.271	1172.91
522.477	1134.94
522.683	1181.44
522.889	1120.21
523.095	1086.89
523.301	1136.3
523.507	1065
523.713	1121.96
523.919	1077.59
524.125	1152.38
524.331	1114.21
524.537	1178.14
524.742	1170.39
524.948	1180.47
525.154	1200.04
525.36	1280.64
525.566	1177.76
525.772	1253.32
525.977	1108.4
526.183	1214.96
526.389	1214.38
526.595	1152.38
526.8	1135.52
527.006	1078.36
527.212	1075.85
527.417	1053.18
527.623	1045.82
527.829	1117.7
528.034	1138.23
528.24	1165.74
528.446	1156.06
528.651	1214.57
528.857	1207.4
529.062	1262.23
529.268	1220.38
529.473	1227.55
529.679	1238.98
529.884	1302.92
530.09	1248.09
530.295	1329.65
530.501	1254.87
530.706	1281.02
530.912	1244.02
531.117	1266.49
531.323	1253.9
531.528	1286.06
531.733	1312.22
531.939	1251.38
532.144	1300.79
532.35	1288.39
532.555	1307.18
532.76	1264.56
532.966	1302.34
533.171	1270.95
533.376	1235.88
533.581	1224.06
533.787	1271.72
533.992	1285.67
534.197	1317.84
534.402	1288.39
534.607	1307.76
534.813	1384.1
535.018	1284.12
535.223	1294.97
535.428	1330.24
535.633	1382.55
535.838	1377.9
536.043	1356.39
536.249	1439.51
536.454	1338.95
536.659	1383.32
536.864	1335.85
537.069	1312.8
537.274	1325.39
537.479	1351.55
537.684	1374.6
537.889	1335.66
538.094	1423.23
538.299	1371.31
538.504	1389.33
538.708	1369.76
538.913	1424.01
539.118	1378.29
539.323	1387.2
539.528	1357.36
539.733	1367.05
539.938	1418.2
540.142	1374.8
540.347	1350
540.552	1321.13
540.757	1329.46
540.962	1333.92
541.166	1290.52
541.371	1299.04
541.576	1323.46
541.781	1275.02
541.985	1353.68
542.19	1374.22
542.395	1393.98
542.599	1417.42
542.804	1407.93
543.008	1401.34
543.213	1362.01
543.418	1337.99
543.622	1386.62
543.827	1329.46
544.031	1415.1
544.236	1452.68
544.44	1403.09
544.645	1484.46
544.849	1395.34
545.054	1433.12
545.258	1484.07
545.463	1455.98
545.667	1402.31
545.872	1430.02
546.076	1412.39
546.281	1423.23
546.485	1368.6
546.689	1439.12
546.894	1437.57
547.098	1445.9
547.302	1379.84
547.507	1401.92
547.711	1424.01
547.915	1498.99
548.119	1381.77
548.324	1451.52
548.528	1485.62
548.732	1439.7
548.936	1458.11
549.141	1436.41
549.345	1401.92
549.549	1422.65
549.753	1446.48
549.957	1513.33
550.161	1504.8
550.366	1452.88
550.57	1439.32
550.774	1455.78
550.978	1474.97
551.182	1468.18
551.386	1414.32
551.59	1431.95
551.794	1425.56
551.998	1467.8
552.202	1441.64
552.406	1430.79
552.61	1446.48
552.814	1473.61
553.018	1502.09
553.222	1468.38
553.426	1436.02
553.63	1502.67
553.833	1463.73
554.037	1402.89
554.241	1466.63
554.445	1455.59
554.649	1463.15
554.853	1435.83
555.056	1468.57
555.26	1497.44
555.464	1457.72
555.668	1463.34
555.871	1498.02
556.075	1498.41
556.279	1432.53
556.483	1379.45
556.686	1466.63
556.89	1439.32
557.094	1485.23
557.297	1396.3
557.501	1466.25
557.704	1395.14
557.908	1438.73
558.112	1404.83
558.315	1476.32
558.519	1395.92
558.722	1387.59
558.926	1396.89
559.129	1346.7
559.333	1318.81
559.536	1343.99
559.74	1347.48
559.943	1308.73
560.147	1326.94
560.35	1320.74
560.553	1363.56
560.757	1304.47
560.96	1412.77
561.164	1350
561.367	1457.92
561.57	1345.74
561.774	1407.54
561.977	1351.74
562.18	1359.49
562.384	1433.89
562.587	1343.99
562.79	1338.57
562.993	1335.85
563.197	1370.34
563.4	1420.13
563.603	1392.24
563.806	1435.44
564.009	1340.12
564.212	1327.91
564.416	1315.9
564.619	1361.24
564.822	1280.25
565.025	1373.83
565.228	1324.04
565.431	1311.83
565.634	1279.86
565.837	1315.12
566.04	1247.7
566.243	1294.78
566.446	1209.34
566.649	1305.63
566.852	1262.81
567.055	1270.56
567.258	1319
567.461	1329.07
567.664	1324.81
567.867	1233.94
568.07	1273.08
568.273	1281.41
568.475	1313.77
568.678	1255.45
568.881	1254.48
569.084	1258.74
569.287	1172.53
569.489	1181.24
569.692	1251.57
569.895	1254.48
570.098	1173.11
570.3	1169.43
570.503	1139.01
570.706	1150.63
570.909	1148.11
571.111	1113.82
571.314	1141.33
571.516	1133
571.719	1155.28
571.922	1145.4
572.124	1161.68
572.327	1151.79
572.529	1128.55
572.732	1133.78
572.935	1165.94
573.137	1249.44
573.34	1138.62
573.542	1203.14
573.745	1180.66
573.947	1181.05
574.15	1131.26
574.352	1137.46
574.554	1157.03
574.757	1135.33
574.959	1130.29
575.162	1103.94
575.364	1089.21
575.566	1207.4
575.769	1098.51
575.971	1122.93
576.173	1004.35
576.376	1085.53
576.578	1114.01
576.78	1161.68
576.982	1015.4
577.185	1115.18
577.387	1053.76
577.589	1056.28
577.791	1094.83
577.993	1104.33
578.196	1073.52
578.398	1123.12
578.6	1127.77
578.802	1054.15
579.004	1080.3
579.206	1034
579.408	1079.72
579.61	1050.85
579.812	1117.5
580.014	1060.15
580.216	1073.33
580.418	1079.53
580.62	1036.13
580.822	1000.28
581.024	1079.91
581.226	1119.83
581.428	1060.15
581.63	1165.55
581.832	1027.8
582.034	1116.15
582.236	1093.28
582.438	1065.38
582.64	1114.6
582.841	1109.75
583.043	1188.22
583.245	1105.88
583.447	1096.38
583.649	1106.26
583.85	1099.68
584.052	1135.33
584.254	1053.37
584.456	1104.91
584.657	1051.63
584.859	1064.8
585.061	1070.23
585.262	1058.02
585.464	1046.2
585.666	1100.45
585.867	1039.81
586.069	1126.8
586.27	1073.13
586.472	1061.12
586.674	1056.47
586.875	1034.97
587.077	1019.08
587.278	1049.11
587.48	1041.55
587.681	1151.79
587.883	1070.81
588.084	996.02
588.285	1028.38
588.487	1028.57
588.688	1033.22
588.89	971.22
589.091	935.38
589.292	974.32
589.494	921.24
589.695	899.92
589.896	862.14
590.098	841.99
590.299	902.05
590.5	896.63
590.702	929.37
590.903	951.27
591.104	986.72
591.305	983.23
591.507	991.76
591.708	982.27
591.909	947.39
592.11	1011.91
592.311	967.15
592.512	918.52
592.714	919.3
592.915	909.8
593.116	949.33
593.317	999.9
593.518	955.72
593.719	959.02
593.92	986.14
594.121	1016.95
594.322	972
594.523	968.9
594.724	944.49
594.925	970.64
595.126	971.61
595.327	974.52
595.528	969.29
595.729	967.15
595.929	916.59
596.13	952.24
596.331	974.32
596.532	966.38
596.733	1017.53
596.934	986.72
597.135	992.34
597.335	981.49
597.536	937.9
597.737	981.1
597.938	925.11
598.138	954.37
598.339	924.34
598.54	992.34
598.74	966.57
598.941	932.86
599.142	1001.25
599.342	984.4
599.543	933.83
599.744	938.67
599.944	996.8
600.145	964.25
600.345	984.4
600.546	1030.32
600.746	997.96
600.947	1026.25
601.147	973.94
601.348	1018.3
601.548	950.49
601.749	932.67
601.949	906.32
602.15	918.33
602.35	908.84
602.551	955.34
602.751	931.7
602.951	980.91
603.152	894.89
603.352	948.17
603.552	924.53
603.753	991.95
603.953	959.99
604.153	945.26
604.354	922.59
604.554	940.61
604.754	941.58
604.954	887.14
605.155	957.47
605.355	923.37
605.555	963.86
605.755	969.29
605.955	953.79
606.155	973.16
606.356	971.8
606.556	962.5
606.756	951.85
606.956	903.41
607.156	986.72
607.356	902.05
607.556	953.59
607.756	942.94
607.956	948.36
608.156	914.65
608.356	920.46
608.556	976.65
608.756	950.88
608.956	892.75
609.156	939.06
609.356	877.84
609.556	883.65
609.755	935.38
609.955	875.71
610.155	924.72
610.355	921.62
610.555	883.07
610.755	895.27
610.954	882.49
611.154	917.55
611.354	938.67
611.554	884.04
611.753	876.29
611.953	865.44
612.153	917.17
612.352	875.12
612.552	839.09
612.752	829.59
612.951	902.05
613.151	869.7
613.351	851.49
613.55	857.49
613.75	888.69
613.949	875.51
614.149	894.11
614.348	876.29
614.548	830.76
614.747	773.99
614.947	844.32
615.146	788.13
615.346	878.81
615.545	872.61
615.745	866.79
615.944	874.16
616.144	852.26
616.343	891.98
616.542	838.31
616.742	864.08
616.941	840.06
617.14	816.42
617.34	797.24
617.539	850.13
617.738	812.35
617.938	891.59
618.137	845.48
618.336	785.03
618.535	876.67
618.734	843.93
618.934	840.25
619.133	817.97
619.332	835.6
619.531	803.24
619.73	810.41
619.929	874.16
620.128	863.31
620.328	876.87
620.527	812.35
620.726	814.87
620.925	825.14
621.124	798.4
621.323	844.71
621.522	779.41
621.721	792.59
621.92	782.32
622.119	834.82
622.318	787.94
622.517	792.78
622.715	784.45
622.914	752.68
623.113	785.03
623.312	760.81
623.511	814.29
623.71	792.59
623.909	752.68
624.107	872.8
624.306	752.68
624.505	754.03
624.704	749.58
624.902	759.65
625.101	828.43
625.3	768.18
625.499	741.63
625.697	738.92
625.896	730.78
626.095	777.67
626.293	733.88
626.492	772.63
626.69	788.13
626.889	743.57
627.088	798.59
627.286	762.17
627.485	737.37
627.683	717.99
627.882	759.07
628.08	678.28
628.279	736.21
628.477	807.89
628.676	690.87
628.874	765.08
629.073	714.89
629.271	693.58
629.469	745.12
629.668	709.08
629.866	716.64
630.065	687.77
630.263	732.91
630.461	689.32
630.66	731.94
630.858	738.14
631.056	755.19
631.254	760.62
631.453	720.71
631.651	802.47
631.849	712.18
632.047	742.02
632.245	725.36
632.444	764.3
632.642	733.49
632.84	767.59
633.038	754.61
633.236	686.41
633.434	728.84
633.632	688.93
633.83	679.05
634.028	755.19
634.227	744.93
634.425	799.76
634.623	737.56
634.821	735.24
635.019	743.18
635.216	700.75
635.414	798.59
635.612	726.13
635.81	714.51
636.008	771.47
636.206	724.19
636.404	774.57
636.602	698.62
636.8	710.05
636.997	745.12
637.195	748.99
637.393	754.03
637.591	804.21
637.789	731.94
637.986	710.05
638.184	730.78
638.382	788.13
638.58	772.44
638.777	802.27
638.975	730.2
639.173	733.49
639.37	766.82
639.568	734.66
639.765	747.25
639.963	748.99
640.161	786.39
640.358	753.64
640.556	721.48
640.753	708.31
640.951	699.4
641.148	723.23
641.346	707.53
641.543	691.26
641.741	753.45
641.938	683.31
642.136	717.22
642.333	673.24
642.531	737.18
642.728	749.38
642.925	699.78
643.123	684.09
643.32	728.26
643.517	710.05
643.715	695.33
643.912	675.95
644.109	708.89
644.306	717.22
644.504	684.09
644.701	731.36
644.898	735.04
645.095	701.53
645.293	719.54
645.49	683.31
645.687	712.18
645.884	749.38
646.081	644.76
646.278	678.28
646.475	663.36
646.672	681.57
646.87	707.53
647.067	667.62
647.264	667.81
647.461	658.71
647.658	602.72
647.855	679.83
648.052	650.96
648.249	605.62
648.446	667.62
648.642	628.68
648.839	625.77
649.036	624.22
649.233	604.07
649.43	619.18
649.627	590.32
649.824	608.14
650.021	597.29
650.217	610.66
650.414	608.14
650.611	636.81
650.808	632.75
651.004	628.87
651.201	646.89
651.398	660.65
651.595	645.34
651.791	626.93
651.988	662.39
652.185	606.78
652.381	652.9
652.578	569.78
652.775	641.85
652.971	601.55
653.168	604.46
653.364	662.58
653.561	582.95
653.757	594.38
653.954	624.8
654.15	605.82
654.347	678.28
654.543	622.48
654.74	567.65
654.936	584.31
655.133	631.97
655.329	601.94
655.525	589.35
655.722	637.01
655.918	562.03
656.115	592.64
656.311	557.38
656.507	541.1
656.704	525.02
656.9	514.56
657.096	517.47
657.292	525.6
657.489	581.02
657.685	582.95
657.881	578.5
658.077	528.9
658.273	553.12
658.47	627.71
658.666	581.02
658.862	593.22
659.058	560.48
659.254	616.67
659.45	581.79
659.646	575.98
659.842	575.78
660.038	617.63
660.234	563.77
660.43	586.44
660.626	651.15
660.822	610.27
661.018	638.75
661.214	583.34
661.41	559.9
661.606	603.88
661.802	610.47
661.998	596.32
662.194	545.37
662.39	598.45
662.586	614.15
662.781	602.52
662.977	631.39
663.173	614.34
663.369	579.08
663.564	597.1
663.76	596.52
663.956	586.25
664.152	635.65
664.347	533.74
664.543	575.59
664.739	574.43
664.934	539.94
665.13	532.39
665.326	598.26
665.521	607.17
665.717	532.77
665.912	537.04
666.108	520.76
666.304	535.87
666.499	563.77
666.695	529.67
666.89	569.58
667.086	599.23
667.281	576.17
667.477	613.18
667.672	577.92
667.867	594.19
668.063	563.77
668.258	510.88
668.454	566.68
668.649	595.16
668.844	568.62
669.04	571.52
669.235	575.78
669.43	536.45
669.626	532.58
669.821	553.12
670.016	526.19
670.211	563
670.407	548.66
670.602	540.52
670.797	546.33
670.992	587.41
671.187	547.5
671.382	593.8
671.578	534.32
671.773	582.57
671.968	466.51
672.163	529.48
672.358	587.22
672.553	508.75
672.748	535.1
672.943	621.12
673.138	525.8
673.333	567.45
673.528	523.86
673.723	544.4
673.918	529.09
674.113	529.09
674.308	617.05
674.503	563.97
674.698	550.02
674.892	542.85
675.087	569.97
675.282	540.52
675.477	540.52
675.672	562.8
675.867	533.55
676.061	508.94
676.256	485.69
676.451	510.1
676.646	552.92
676.84	485.11
677.035	480.27
677.23	481.43
677.424	558.73
677.619	566.29
677.814	558.35
678.008	573.07
678.203	468.84
678.397	508.17
678.592	522.12
678.787	542.07
678.981	521.92
679.176	548.85
679.37	518.63
679.565	493.05
679.759	493.25
679.954	505.84
680.148	570.75
680.342	564.74
680.537	533.55
680.731	478.72
680.926	510.49
681.12	524.44
681.314	524.25
681.509	517.08
681.703	521.54
681.897	531.61
682.092	519.4
682.286	524.64
682.48	558.15
682.674	545.37
682.869	513.2
683.063	503.71
683.257	575.98
683.451	491.7
683.645	514.37
683.839	510.1
684.034	481.82
684.228	537.81
684.422	476.39
684.616	509.72
684.81	524.44
685.004	502.74
685.198	505.65
685.392	539.17
685.586	491.5
685.78	517.27
685.974	555.83
686.168	537.81
686.362	561.06
686.556	474.26
686.75	445.01
686.944	455.27
687.138	439.19
687.331	386.49
687.525	401.02
687.719	339.99
687.913	416.72
688.107	408
688.301	400.06
688.494	446.17
688.688	409.16
688.882	358.01
689.076	392.31
689.269	411.49
689.463	473.29
689.657	424.66
689.85	395.99
690.044	413.81
690.238	446.75
690.431	426.79
690.625	387.46
690.818	457.79
691.012	430.67
691.205	462.25
691.399	424.86
691.593	466.9
691.786	533.16
691.98	503.71
692.173	518.44
692.366	532.77
692.56	515.34
692.753	571.13
692.947	457.99
693.14	520.18
693.333	547.5
693.527	466.51
693.72	512.04
693.914	522.12
694.107	506.42
694.3	498.09
694.493	499.06
694.687	560.48
694.88	487.05
695.073	558.93
695.266	554.08
695.46	519.99
695.653	580.05
695.846	548.08
696.039	500.22
696.232	549.63
696.425	563
696.618	581.98
696.812	598.26
697.005	630.81
697.198	683.12
697.391	617.83
697.584	633.52
697.777	683.12
697.97	644.37
698.163	659.29
698.356	662.97
698.549	723.03
698.742	682.93
698.935	649.6
699.127	655.03
699.32	651.93
699.513	636.43
699.706	657.93
699.899	705.4
700.092	686.8
700.285	683.12
700.477	641.46
700.67	684.86
700.863	721.87
701.056	782.9
701.248	749.77
701.441	750.54
701.634	712.76
701.826	824.17
702.019	701.33
702.212	798.01
702.404	707.73
702.597	719.93
702.79	763.72
702.982	759.07
703.175	804.21
703.367	790.26
703.56	818.74
703.752	905.54
703.945	856.14
704.137	878.42
704.33	883.46
704.522	877.26
704.715	857.49
704.907	913.68
705.1	914.45
705.292	916.39
705.484	882.87
705.677	915.62
705.869	948.94
706.061	980.72
706.254	1000.87
706.446	955.14
706.638	965.8
706.831	1030.7
707.023	977.03
707.215	1044.85
707.407	1023.15
707.599	1027.02
707.792	1076.04
707.984	1055.31
708.176	1099.68
708.368	1060.93
708.56	1083.01
708.752	1083.98
708.944	1058.6
709.136	1115.18
709.329	1113.24
709.521	1203.91
709.713	1162.64
709.905	1182.6
710.097	1212.44
710.289	1136.68
710.481	1179.5
710.672	1209.34
710.864	1187.06
711.056	1262.04
711.248	1221.93
711.44	1257.39
711.632	1227.74
711.824	1304.27
712.016	1318.03
712.207	1299.24
712.399	1277.34
712.591	1373.64
712.783	1333.53
712.975	1353.29
713.166	1304.66
713.358	1325.59
713.55	1392.82
713.741	1411.61
713.933	1397.08
714.125	1341.47
714.316	1379.84
714.508	1432.53
714.7	1435.25
714.891	1457.33
715.083	1460.82
715.274	1411.61
715.466	1427.3
715.657	1498.6
715.849	1394.37
716.04	1432.34
716.232	1376.15
716.423	1483.49
716.615	1374.22
716.806	1360.27
716.998	1343.6
717.189	1302.72
717.381	1250.41
717.572	1240.92
717.763	1286.45
717.955	1250.02
718.146	1239.76
718.337	1162.64
718.528	1154.7
718.72	1120.02
718.911	1215.54
719.102	1143.85
719.293	1206.63
719.485	1168.26
719.676	1195.97
719.867	1134.75
720.058	1151.79
720.249	1190.35
720.44	1177.56
720.632	1232.98
720.823	1242.27
721.014	1329.85
721.205	1339.15
721.396	1428.47
721.587	1531.15
721.778	1501.12
721.969	1542.97
722.16	1590.24
722.351	1583.66
722.542	1669.88
722.733	1688.67
722.924	1586.37
723.115	1685.76
723.305	1654.57
723.496	1664.45
723.687	1575.52
723.878	1566.03
724.069	1584.24
724.26	1592.76
724.45	1588.89
724.641	1542
724.832	1590.83
725.023	1555.76
725.213	1574.36
725.404	1542.97
725.595	1564.86
725.785	1537.74
725.976	1632.87
726.167	1597.41
726.357	1616.79
726.548	1706.11
726.739	1641.2
726.929	1724.71
727.12	1737.88
727.31	1765
727.501	1716.96
727.691	1712.11
727.882	1720.64
728.072	1735.75
728.263	1761.91
728.453	1796.2
728.644	1822.35
728.834	1818.87
729.024	1789.42
729.215	1774.11
729.405	1808.99
729.596	1871.37
729.786	1912.83
729.976	1870.98
730.167	1906.44
730.357	1875.05
730.547	1903.34
730.737	1933.18
730.928	1987.43
731.118	1998.08
731.308	1975.41
731.498	1940.73
731.688	2019.59
731.879	2077.91
732.069	2098.06
732.259	2103.09
732.449	2136.42
732.639	2214.89
732.829	2219.34
733.019	2260.22
733.209	2306.92
733.399	2277.85
733.589	2363.49
733.779	2381.31
733.969	2383.83
734.159	2434.98
734.349	2470.83
734.539	2525.46
734.729	2521.2
734.919	2550.46
735.109	2572.93
735.299	2527.4
735.488	2545.42
735.678	2573.9
735.868	2566.15
736.058	2558.01
736.248	2581.84
736.437	2503.76
736.627	2528.76
736.817	2670.39
737.007	2591.53
737.196	2657.99
737.386	2633.19
737.576	2601.22
737.765	2683.56
737.955	2603.16
738.144	2789.73
738.334	2722.7
738.524	2667.09
738.713	2693.25
738.903	2710.3
739.092	2717.27
739.282	2747.88
739.471	2744.98
739.661	2712.43
739.85	2775.78
740.04	2809.3
740.229	2845.53
740.419	2849.41
740.608	2871.3
740.797	2844.37
740.987	2906.76
741.176	2893.58
741.365	2810.27
741.555	2829.06
741.744	2941.83
741.933	2882.54
742.123	2927.68
742.312	2915.67
742.501	2964.69
742.69	2933.69
742.88	2919.74
743.069	3044.9
743.258	2983.87
743.447	3023.2
743.636	3032.69
743.825	2974.96
744.014	3027.85
744.204	3036.76
744.393	2971.08
744.582	3066.6
744.771	3062.72
744.96	3035.21
745.149	3078.22
745.338	3017.19
745.527	3076.29
745.716	3059.82
745.905	3032.69
746.094	3090.43
746.283	3107.48
746.471	3088.49
746.66	3132.47
746.849	3097.4
747.038	3122.2
747.227	3121.62
747.416	3146.23
747.604	3093.72
747.793	3116.78
747.982	3127.05
748.171	3135.19
748.359	3141.97
748.548	3147.97
748.737	3115.81
748.926	3079.77
749.114	3016.42
749.303	3144.87
749.491	3095.08
749.68	3004.99
749.869	3156.69
750.057	3077.84
750.246	3083.84
750.434	3094.5
750.623	3076.29
750.811	3063.31
751	3161.15
751.188	3066.6
751.377	3103.02
751.565	3046.06
751.754	3053.23
751.942	3004.02
752.131	3114.45
752.319	3013.12
752.507	3006.15
752.696	3074.74
752.884	3151.46
753.072	3036.57
753.261	3062.92
753.449	3078.22
753.637	3032.31
753.825	3132.28
754.014	3036.18
754.202	3056.33
754.39	3098.95
754.578	3132.28
754.766	3008.09
754.955	3038.31
755.143	3151.85
755.331	3040.64
755.519	3044.71
755.707	3046.45
755.895	3010.61
756.083	3061.76
756.271	2973.79
756.459	3047.42
756.647	3015.26
756.835	3009.06
757.023	3011.57
757.211	2960.23
757.399	2998.98
757.587	2986
757.775	2941.44
757.963	2977.09
758.151	2994.33
758.339	2955
758.526	2899.2
758.714	2937.95
758.902	2853.67
759.09	2772.3
759.278	2604.9
759.465	2393.52
759.653	2089.14
759.841	1928.92
760.028	1607.88
760.216	1430.21
760.404	1350.19
760.591	1114.01
760.779	893.53
760.967	789.68
761.154	632.94
761.342	692.81
761.529	688.55
761.717	776.51
761.905	713.93
762.092	804.99
762.28	737.56
762.467	764.88
762.655	720.32
762.842	708.89
763.029	745.31
763.217	708.89
763.404	732.14
763.592	749.58
763.779	722.26
763.966	780.19
764.154	814.67
764.341	844.51
764.528	844.12
764.716	897.99
764.903	948.55
765.09	1022.76
765.277	1036.32
765.465	1189.58
765.652	1242.66
765.839	1311.06
766.026	1414.9
766.213	1476.9
766.4	1584.63
766.588	1741.56
766.775	1745.82
766.962	1820.8
767.149	1900.43
767.336	2026.76
767.523	1998.66
767.71	2104.45
767.897	2218.18
768.084	2285.8
768.271	2310.98
768.458	2363.88
768.645	2436.92
768.832	2392.75
769.019	2423.55
769.206	2476.83
769.392	2579.52
769.579	2623.31
769.766	2584.75
769.953	2588.82
770.14	2606.45
770.327	2620.4
770.513	2639.97
770.7	2716.69
770.887	2644.23
771.073	2641.71
771.26	2655.47
771.447	2609.36
771.634	2633.77
771.82	2715.34
772.007	2610.13
772.193	2640.35
772.38	2672.52
772.567	2631.44
772.753	2630.28
772.94	2714.37
773.126	2705.07
773.313	2761.64
773.499	2684.14
773.686	2703.71
773.872	2651.79
774.059	2684.14
774.245	2606.84
774.432	2646.17
774.618	2581.84
774.804	2635.51
774.991	2613.04
775.177	2655.66
775.363	2628.34
775.55	2634.93
775.736	2580.87
775.922	2597.54
776.109	2642.29
776.295	2639.97
776.481	2640.55
776.667	2662.44
776.853	2612.46
777.04	2589.98
777.226	2610.13
777.412	2667.48
777.598	2568.67
777.784	2573.9
777.97	2570.8
778.156	2591.14
778.342	2562.08
778.528	2561.11
778.715	2484.19
778.901	2507.06
779.087	2559.95
779.272	2524.69
779.458	2494.08
779.644	2529.34
779.83	2476.06
780.016	2582.81
780.202	2543.87
780.388	2480.51
780.574	2402.05
780.76	2437.31
780.946	2561.31
781.131	2487.49
781.317	2498.92
781.503	2443.12
781.689	2483.42
781.874	2576.22
782.06	2445.25
782.246	2474.51
782.432	2445.64
782.617	2463.27
782.803	2512.48
782.989	2461.72
783.174	2430.72
783.36	2387.13
783.545	2418.9
783.731	2396.62
783.916	2325.13
784.102	2430.72
784.288	2365.82
784.473	2411.54
784.659	2368.92
784.844	2410.18
785.029	2339.47
785.215	2344.12
785.4	2295.87
785.586	2379.18
785.771	2303.43
785.956	2354.19
786.142	2344.89
786.327	2313.31
786.512	2320.67
786.698	2312.73
786.883	2256.35
787.068	2295.29
787.254	2304.78
787.439	2275.14
787.624	2271.27
787.809	2251.31
787.994	2262.94
788.18	2298.78
788.365	2205.39
788.55	2223.8
788.735	2241.82
788.92	2236
789.105	2239.3
789.29	2255.19
789.475	2192.41
789.66	2191.06
789.845	2159.09
790.03	2172.84
790.215	2190.28
790.4	2198.42
790.585	2187.96
790.77	2169.16
790.955	2128.86
791.14	2164.32
791.325	2216.63
791.51	2068.22
791.695	2109.49
791.879	2137.39
792.064	2086.82
792.249	2163.74
792.434	2117.82
792.618	2156.37
792.803	2159.09
792.988	2132.35
793.173	2150.95
793.357	2159.67
793.542	2080.23
793.727	2099.99
793.911	2165.29
794.096	2129.83
794.281	2153.66
794.465	2242.2
794.65	2114.91
794.834	2174.39
795.019	2194.54
795.203	2193.57
795.388	2206.55
795.572	2236.39
795.757	2167.03
795.941	2158.51
796.126	2168.77
796.31	2119.95
796.494	2124.79
796.679	2146.11
796.863	2115.69
797.048	2232.13
797.232	2207.14
797.416	2182.92
797.601	2170.13
797.785	2205.78
797.969	2210.04
798.153	2109.88
798.338	2189.89
798.522	2204.62
798.706	2189.89
798.89	2206.17
799.074	2285.41
799.258	2245.11
799.443	2204.42
799.627	2226.12
799.811	2241.82
799.995	2162.96
800.179	2204.62
800.363	2167.03
800.547	2171.1
800.731	2238.72
800.915	2123.44
801.099	2150.95
801.283	2132.16
801.467	2173.62
801.651	2140.49
801.835	2208.49
802.019	2173.04
802.202	2207.72
802.386	2119.95
802.57	2131.57
802.754	2152.31
802.938	2123.44
803.121	2151.53
803.305	2207.72
803.489	2158.12
803.673	2179.24
803.856	2209.65
804.04	2184.27
804.224	2150.76
804.407	2110.26
804.591	2145.14
804.775	2133.51
804.958	2137.58
805.142	2232.71
805.326	2154.44
805.509	2167.03
805.693	2183.89
805.876	2218.37
806.06	2184.47
806.243	2198.03
806.427	2226.7
806.61	2230.39
806.794	2202.87
806.977	2209.85
807.16	2211.59
807.344	2182.34
807.527	2230.97
807.71	2159.28
807.894	2135.45
808.077	2228.64
808.26	2149.21
808.444	2149.98
808.627	2224.57
808.81	2124.02
808.993	2124.79
809.177	2098.25
809.36	2117.62
809.543	2121.89
809.726	2054.46
809.909	2057.56
810.092	2068.41
810.276	2026.76
810.459	2050.39
810.642	2022.88
810.825	2027.92
811.008	2015.91
811.191	1922.91
811.374	1945.96
811.557	1946.16
811.74	2032.76
811.923	1907.22
812.106	1883.58
812.289	1864.98
812.472	1904.31
812.654	1883.77
812.837	1848.32
813.02	1835.92
813.203	1776.24
813.386	1679.17
813.569	1673.75
813.751	1668.13
813.934	1685.57
814.117	1668.91
814.3	1637.33
814.482	1605.55
814.665	1544.33
814.848	1528.25
815.03	1468.18
815.213	1473.22
815.396	1469.54
815.578	1451.52
815.761	1418.78
815.943	1495.7
816.126	1362.98
816.309	1371.7
816.491	1326.17
816.674	1244.41
816.856	1360.07
817.039	1318.81
817.221	1393.98
817.403	1315.32
817.586	1377.7
817.768	1366.27
817.951	1310.67
818.133	1286.26
818.315	1324.23
818.498	1362.59
818.68	1416.07
818.862	1384.68
819.045	1397.47
819.227	1333.53
819.409	1313.38
819.591	1377.51
819.774	1368.79
819.956	1320.74
820.138	1385.84
820.32	1424.59
820.502	1415.68
820.684	1479.03
820.866	1459.27
821.048	1551.11
821.231	1538.71
821.413	1556.34
821.595	1529.8
821.777	1576.49
821.959	1503.83
822.141	1596.83
822.323	1445.13
822.505	1413.55
822.686	1374.41
822.868	1307.37
823.05	1214.38
823.232	1234.91
823.414	1145.4
823.596	1215.34
823.778	1183.38
823.96	1210.11
824.141	1172.33
824.323	1228.71
824.505	1284.51
824.687	1354.84
824.868	1398.24
825.05	1480.39
825.232	1492.21
825.413	1540.45
825.595	1542.97
825.777	1428.08
825.958	1483.49
826.14	1479.42
826.321	1507.71
826.503	1486.78
826.685	1486.4
826.866	1525.34
827.048	1530.57
827.229	1479.42
827.411	1425.56
827.592	1376.15
827.773	1383.32
827.955	1338.37
828.136	1344.96
828.318	1314.74
828.499	1360.85
828.68	1313.96
828.862	1352.9
829.043	1358.33
829.224	1346.32
829.406	1310.09
829.587	1319.19
829.768	1338.95
829.949	1314.35
830.131	1368.21
830.312	1442.03
830.493	1324.23
830.674	1370.15
830.855	1340.5
831.036	1345.74
831.218	1384.49
831.399	1372.67
831.58	1359.1
831.761	1339.54
831.942	1381.39
832.123	1335.47
832.304	1269.4
832.485	1305.05
832.666	1351.16
832.847	1354.07
833.028	1340.89
833.209	1367.24
833.389	1337.79
833.57	1290.32
833.751	1354.65
833.932	1368.21
834.113	1335.08
834.294	1337.99
834.475	1352.13
834.655	1406.96
834.836	1395.72
835.017	1372.28
835.198	1321.71
835.378	1386.04
835.559	1399.4
835.74	1347.67
835.92	1323.46
836.101	1319.39
836.281	1370.15
836.462	1378.67
836.643	1440.09
836.823	1433.89
837.004	1384.29
837.184	1471.87
837.365	1406.96
837.545	1401.73
837.726	1364.53
837.906	1432.34
838.087	1421.88
838.267	1377.51
838.448	1368.4
838.628	1393.59
838.808	1374.41
838.989	1433.31
839.169	1377.9
839.349	1422.07
839.53	1437.18
839.71	1443
839.89	1397.47
840.07	1441.25
840.251	1389.91
840.431	1431.18
840.611	1390.88
840.791	1389.72
840.971	1439.32
841.151	1402.7
841.332	1382.74
841.512	1470.9
841.692	1343.02
841.872	1415.68
842.052	1391.85
842.232	1449
842.412	1327.91
842.592	1374.02
842.772	1407.35
842.952	1380.03
843.132	1365.69
843.312	1371.7
843.492	1351.55
843.672	1421.68
843.851	1305.24
844.031	1379.64
844.211	1371.7
844.391	1357.75
844.571	1390.3
844.751	1391.27
844.93	1375.96
845.11	1341.67
845.29	1370.54
845.47	1352.13
845.649	1347.67
845.829	1418.2
846.009	1345.35
846.188	1360.27
846.368	1348.25
846.547	1350.39
846.727	1414.52
846.907	1313.77
847.086	1365.3
847.266	1411.61
847.445	1358.72
847.625	1350.97
847.804	1294.78
847.984	1316.09
848.163	1326.36
848.343	1290.91
848.522	1359.49
848.701	1335.08
848.881	1276.76
849.06	1348.25
849.239	1339.34
849.419	1336.63
849.598	1263.01
849.777	1262.42
849.957	1261.84
850.136	1182.41
850.315	1168.46
850.494	1189.96
850.674	1216.31
850.853	1241.5
851.032	1247.12
851.211	1269.98
851.39	1253.51
851.569	1188.03
851.748	1162.64
851.927	1254.67
852.107	1232.01
852.286	1198.88
852.465	1164.78
852.644	1280.06
852.823	1230.46
853.002	1237.63
853.181	1244.6
853.359	1235.49
853.538	1150.44
853.717	1258.74
853.896	1151.6
854.075	1145.79
854.254	1080.5
854.433	1038.65
854.611	1080.88
854.79	1030.9
854.969	1069.26
855.148	1108.78
855.327	1062.87
855.505	1107.23
855.684	1097.35
855.863	1126.8
856.041	1095.61
856.22	1102.58
856.399	1091.93
856.577	1189.58
856.756	1175.43
856.934	1247.7
857.113	1281.61
857.291	1180.66
857.47	1147.73
857.648	1193.64
857.827	1150.63
858.005	1210.11
858.184	1158.96
858.362	1241.31
858.541	1170.39
858.719	1150.44
858.898	1139.59
859.076	1144.63
859.254	1219.61
859.433	1133.78
859.611	1145.98
859.789	1103.55
859.967	1201.59
860.146	1220.38
860.324	1117.11
860.502	1122.35
860.68	1081.08
860.859	1149.28
861.037	1127.38
861.215	1158.38
861.393	1161.68
861.571	1131.84
861.749	1102.97
861.927	1133
862.105	1129.32
862.283	1110.53
862.461	1081.27
862.639	1072.55
862.817	1087.86
862.995	1148.31
863.173	1070.03
863.351	1096.19
863.529	1104.52
863.707	1152.18
863.885	1130.29
864.063	1042.72
864.241	1069.45
864.418	1144.82
864.596	1060.35
864.774	1016.75
864.952	1086.89
865.129	1074.68
865.307	1103.16
865.485	1018.11
865.663	1100.45
865.84	995.83
866.018	1048.72
866.196	924.34
866.373	952.24
866.551	887.91
866.728	872.8
866.906	949.33
867.084	944.49
867.261	980.52
867.439	971.42
867.616	1021.79
867.794	993.5
867.971	994.08
868.149	1003
868.326	1011.13
868.503	1047.95
868.681	1004.74
868.858	980.52
869.035	956.69
869.213	1049.69
869.39	978.58
869.567	1056.08
869.745	994.28
869.922	1002.8
870.099	1047.17
870.276	1034.77
870.454	1048.92
870.631	1018.3
870.808	990.6
870.985	1049.3
871.162	1081.46
871.339	1008.23
871.517	985.17
871.694	979.36
871.871	992.15
872.048	985.95
872.225	974.71
872.402	974.52
872.579	923.17
872.756	980.33
872.933	946.42
873.11	962.89
873.287	970.64
873.463	937.12
873.64	951.27
873.817	957.27
873.994	948.55
874.171	915.42
874.348	952.82
874.524	900.31
874.701	948.55
874.878	883.46
875.055	936.93
875.231	928.99
875.408	958.05
875.585	885.97
875.762	915.81
875.938	912.13
876.115	897.79
876.291	891.4
876.468	876.48
876.645	902.25
876.821	884.42
876.998	877.06
877.174	902.44
877.351	883.07
877.527	880.74
877.704	937.51
877.88	874.35
878.057	877.06
878.233	932.09
878.409	872.41
878.586	931.31
878.762	849.74
878.938	878.61
879.115	829.79
879.291	876.29
879.467	825.52
879.644	864.47
879.82	888.69
879.996	827.85
880.172	803.24
880.349	862.14
880.525	891.4
880.701	793.56
880.877	808.09
881.053	830.95
881.229	803.82
881.405	896.44
881.581	817.77
881.757	835.99
881.933	854.2
882.109	843.93
882.285	847.42
882.461	793.94
882.637	844.9
882.813	808.28
882.989	816.42
883.165	871.25
883.341	815.64
883.517	870.09
883.693	858.66
883.869	861.37
884.044	802.86
884.22	854.2
884.396	879.19
884.572	845.09
884.747	881.71
884.923	849.74
885.099	876.67
885.275	872.61
885.45	837.73
885.626	818.74
885.801	806.34
885.977	798.01
886.153	743.38
886.328	848.77
886.504	779.41
886.679	864.86
886.855	803.24
887.03	829.59
887.206	847.03
887.381	810.02
887.557	832.89
887.732	859.82
887.908	842.96
888.083	851.49
888.258	821.84
888.434	818.36
888.609	847.81
888.784	878.81
888.96	793.75
889.135	787.94
889.31	813.32
889.485	821.65
889.661	840.44
889.836	854.59
890.011	839.09
890.186	825.14
890.361	819.13
890.537	879.77
890.712	834.44
890.887	818.55
891.062	807.89
891.237	865.05
891.412	792.2
891.587	840.44
891.762	840.83
891.937	850.91
892.112	783.09
892.287	827.07
892.462	796.08
892.637	754.81
892.812	759.26
892.987	769.73
893.161	746.67
893.336	737.76
893.511	747.64
893.686	757.33
893.861	748.99
894.035	732.91
894.21	747.64
894.385	710.25
894.56	750.93
894.734	680.21
894.909	683.31
895.084	687.77
895.258	671.11
895.433	678.86
895.608	675.95
895.782	638.75
895.957	674.21
896.131	637.98
896.306	582.95
896.48	593.22
896.655	613.76
896.829	553.31
897.004	541.3
897.178	547.69
897.353	545.95
897.527	626.74
897.701	556.8
897.876	518.05
898.05	588.18
898.224	587.8
898.399	611.24
898.573	559.51
898.747	434.54
898.921	502.16
899.096	442.68
899.27	463.22
899.444	449.27
899.618	453.53
899.792	480.07
899.967	466.9
900.141	534.32
900.315	446.36
900.489	469.03
900.663	535.68
900.837	460.7
901.011	448.49
901.185	520.37
901.359	488.4
901.533	480.65
901.707	490.92
901.881	516.3
902.055	434.35
902.229	473.29
902.403	537.81
902.576	479.49
902.75	494.99
902.924	570.17
903.098	510.69
903.272	589.93
903.446	579.27
903.619	590.7
903.793	603.49
903.967	575.59
904.14	619.18
904.314	620.15
904.488	593.42
904.661	650.57
904.835	613.76
905.009	650.38
905.182	687.96
905.356	627.71
905.529	600.58
905.703	576.95
905.876	575.2
906.05	544.98
906.223	546.53
906.397	479.1
906.57	496.74
906.744	452.75
906.917	484.92
907.09	495.96
907.264	499.64
907.437	430.67
907.61	426.6
907.784	476
907.957	468.25
908.13	414.59
908.304	469.61
908.477	415.36
908.65	458.57
908.823	398.7
908.996	480.65
909.17	420.4
909.343	412.07
909.516	461.67
909.689	439.97
909.862	384.56
910.035	410.91
910.208	392.5
910.381	396.18
910.554	495.57
910.727	420.79
910.9	399.47
911.073	398.7
911.246	476.2
911.419	480.07
911.592	445.59
911.765	392.5
911.938	400.64
912.11	440.74
912.283	428.73
912.456	457.79
912.629	408.39
912.802	412.46
912.974	355.88
913.147	359.37
913.32	307.25
913.493	321.39
913.665	371.57
913.838	362.28
914.01	371.77
914.183	359.18
914.356	334.18
914.528	377.39
914.701	442.68
914.873	398.7
915.046	363.05
915.218	352.2
915.391	292.53
915.563	317.71
915.736	335.15
915.908	378.74
916.081	331.08
916.253	356.66
916.425	372.54
916.598	371.57
916.77	344.06
916.942	371.38
917.115	288.84
917.287	363.83
917.459	338.44
917.632	304.93
917.804	281.29
917.976	346
918.148	358.59
918.32	336.89
918.493	376.42
918.665	417.88
918.837	371.96
919.009	425.24
919.181	402.96
919.353	389.79
919.525	391.72
919.697	409.74
919.869	368.28
920.041	414.78
920.213	468.06
920.385	409.36
920.557	405.48
920.729	415.36
920.901	396.96
921.073	383.2
921.244	389.4
921.416	427.18
921.588	399.09
921.76	367.89
921.932	444.23
922.103	362.86
922.275	395.41
922.447	394.44
922.619	307.06
922.79	382.81
922.962	348.91
923.134	394.82
923.305	322.56
923.477	315.58
923.648	321.39
923.82	339.61
923.991	300.47
924.163	294.08
924.335	311.9
924.506	312.68
924.677	376.22
924.849	299.69
925.02	321.59
925.192	383.59
925.363	344.84
925.535	340.77
925.706	290.98
925.877	372.54
926.049	318.1
926.22	345.42
926.391	355.69
926.562	353.56
926.734	315.58
926.905	356.27
927.076	290.01
927.247	308.8
927.419	267.92
927.59	256.1
927.761	269.66
927.932	292.72
928.103	269.86
928.274	248.55
928.445	254.94
928.616	230.33
928.787	234.4
928.958	257.65
929.129	247.77
929.3	212.9
929.471	205.34
929.642	179.96
929.813	105.56
929.984	210.96
930.155	129.2
930.326	197.01
930.496	158.45
930.667	107.88
930.838	134.04
931.009	108.27
931.18	124.74
931.35	136.95
931.521	118.54
931.692	87.15
931.863	66.42
932.033	116.8
932.204	111.37
932.374	107.3
932.545	38.91
932.716	107.69
932.886	127.84
933.057	37.36
933.227	45.3
933.398	140.63
933.568	13.92
933.739	15.66
933.909	57.7
934.08	111.95
934.25	-14.56
934.421	37.55
934.591	73.79
934.761	27.29
934.932	-2.55
935.102	36.97
935.272	10.24
935.443	30.58
935.613	9.27
935.783	29.61
935.953	21.86
936.123	165.62
936.294	18.95
936.464	29.61
936.634	24.77
936.804	18.95
936.974	-22.12
937.144	39.49
937.314	51.31
937.484	26.12
937.655	13.53
937.825	82.12
937.995	6.17
938.165	103.43
938.334	7.14
938.504	28.64
938.674	33.49
938.844	36.39
939.014	84.44
939.184	105.56
939.354	116.8
939.524	118.15
939.694	68.75
939.863	67.97
940.033	136.56
940.203	136.75
940.373	77.27
940.542	84.83
940.712	69.52
940.882	91.8
941.051	131.13
941.221	116.8
941.391	132.88
941.56	56.35
941.73	56.74
941.899	153.42
942.069	71.46
942.238	99.55
942.408	24.57
942.577	107.11
942.747	53.44
942.916	50.34
943.086	40.46
943.255	124.35
943.425	88.7
943.594	29.42
943.763	-13.01
943.933	17.99
944.102	4.62
944.271	53.25
944.441	73.01
944.61	59.45
944.779	48.21
944.948	134.82
945.117	0.36
945.287	29.42
945.456	-3.52
945.625	34.84
945.794	72.82
945.963	28.45
946.132	65.26
946.301	44.53
946.47	73.2
946.639	-13.4
946.808	23.22
946.977	71.65
947.146	77.47
947.315	36.2
947.484	74.17
947.653	49.76
947.822	19.34
947.991	38.33
948.16	111.95
948.329	98.59
948.498	57.32
948.666	66.81
948.835	63.71
949.004	-1.39
949.173	32.52
949.341	48.79
949.51	50.34
949.679	86.19
949.847	76.11
950.016	118.54
950.185	90.45
950.353	39.49
950.522	48.02
950.69	105.75
950.859	23.41
951.028	96.65
951.196	63.32
951.365	26.12
951.533	54.41
951.701	105.17
951.87	84.64
952.038	17.6
952.207	44.14
952.375	111.37
952.543	28.25
952.712	68.75
952.88	10.24
953.048	86.19
953.217	67.97
953.385	28.06
953.553	117.96
953.721	28.25
953.89	63.13
954.058	9.46
954.226	30.97
954.394	78.82
954.562	4.81
954.73	67.2
954.898	72.24
955.067	114.28
955.235	30.58
955.403	97.23
955.571	140.24
955.739	41.82
955.907	20.7
956.075	30.97
956.243	35.04
956.41	68.75
956.578	8.88
956.746	-4.49
956.914	43.37
957.082	57.7
957.25	58.87
957.418	47.82
957.585	64.49
957.753	121.64
957.921	41.43
958.089	50.15
958.256	82.5
958.424	83.86
958.592	67
958.759	10.24
958.927	88.12
959.095	36.59
959.262	48.02
959.43	56.54
959.597	44.72
959.765	50.73
959.932	31.94
960.1	88.7
960.267	54.22
960.435	40.27
960.602	77.27
960.77	52.28
960.937	9.85
961.104	58.67
961.272	12.95
961.439	36.39
961.606	53.25
961.774	96.45
961.941	32.13
962.108	119.12
962.275	88.12
962.443	103.62
962.61	74.37
962.777	104.78
962.944	71.07
963.111	81.54
963.278	115.05
963.446	65.07
963.613	61
963.78	77.27
963.947	73.59
964.114	74.95
964.281	133.85
964.448	105.75
964.615	57.51
964.782	76.3
964.949	118.35
965.116	103.62
965.282	121.25
965.449	81.92
965.616	38.33
965.783	92.58
965.95	78.05
966.117	44.34
966.283	59.45
966.45	89.87
966.617	91.03
966.784	154
966.95	128.42
967.117	114.08
967.284	39.49
967.45	49.76
967.617	134.04
967.784	72.82
967.95	129
968.117	90.64
968.283	122.8
968.45	184.61
968.616	113.7
968.783	135.98
968.949	108.08
969.116	100.33
969.282	95.87
969.449	123.97
969.615	50.73
969.781	41.24
969.948	87.74
970.114	59.06
970.28	130.75
970.447	84.05
970.613	125.71
970.779	93.16
970.945	107.5
971.112	74.37
971.278	97.04
971.444	101.1
971.61	112.53
971.776	71.65
971.942	104.2
972.108	111.76
972.275	75.72
972.441	94.52
972.607	151.28
972.773	60.22
972.939	86.57
973.105	100.33
973.271	70.49
973.437	83.67
973.602	54.8
973.768	107.5
973.934	55.38
974.1	98.59
974.266	-6.62
974.432	117.77
974.598	57.51
974.763	126.48
974.929	55.77
975.095	150.51
975.261	64.87
975.426	67.97
975.592	86.77
975.758	155.74
975.923	47.44
976.089	65.07
976.255	103.82
976.42	105.75
976.586	73.79
976.751	95.87
976.917	170.66
977.082	85.02
977.248	39.69
977.413	36.59
977.579	58.87
977.744	108.08
977.91	44.72
978.075	55.38
978.24	82.5
978.406	63.32
978.571	75.14
978.736	60.03
978.902	106.14
979.067	38.14
979.232	18.76
979.397	73.79
979.563	128.62
979.728	49.18
979.893	79.02
980.058	55.96
980.223	101.3
980.388	81.15
980.554	96.26
980.719	60.03
980.884	81.73
981.049	106.92
981.214	58.29
981.379	87.35
981.544	76.69
981.709	79.02
981.874	72.04
982.039	93.35
982.204	88.32
982.368	68.94
982.533	15.66
982.698	109.05
982.863	104.01
983.028	72.24
983.193	74.95
983.357	76.5
983.522	77.66
983.687	64.49
983.852	76.5
984.016	69.91
984.181	104.59
984.346	89.67
984.51	82.7
984.675	61
984.839	102.85
985.004	104.4
985.168	108.47
985.333	73.79
985.498	67.59
985.662	128.23
985.827	77.85
985.991	74.75
986.155	69.52
986.32	105.17
986.484	131.13
986.649	87.15
986.813	42.98
986.977	86.77
987.142	123.97
987.306	43.37
987.47	40.65
987.634	69.72
987.799	104.01
987.963	60.42
988.127	92.58
988.291	143.92
988.455	59.64
988.62	54.99
988.784	95.49
988.948	105.75
989.112	56.15
989.276	120.09
989.44	75.72
989.604	53.64
989.768	49.37
989.932	143.53
990.096	34.65
990.26	45.89
990.424	21.86
990.588	70.3
990.752	123.58
990.915	107.3
991.079	70.1
991.243	72.04
991.407	112.92
991.571	63.13
991.734	104.98
991.898	87.15
992.062	185.58
992.226	67.78
992.389	32.13
992.553	34.07
992.717	35.23
992.88	47.82
993.044	82.7
993.207	56.35
993.371	100.14
993.535	80.95
993.698	89.09
993.862	93.74
994.025	124.35
994.189	81.73
994.352	76.89
994.515	68.36
994.679	89.29
994.842	72.04
995.006	72.62
995.169	54.99
995.332	58.87
995.496	72.24
995.659	20.12
995.822	51.89
995.985	70.49
996.149	104.98
996.312	73.2
996.475	118.73
996.638	42.4
996.801	125.71
996.964	119.32
997.128	66.42
997.291	48.99
997.454	67.97
997.617	21.67
997.78	82.5
997.943	20.31
998.106	81.54
998.269	23.02
998.432	48.21
998.595	76.69
998.758	41.24
998.92	42.59
999.083	3.46
999.246	44.14
999.409	11.59
999.572	-26.19
999.735	54.99
999.897	51.5
1000.06	25.74
1000.223	36.97
1000.386	71.07
1000.548	96.26
1000.711	92.58
1000.874	61.19
1001.036	21.47
1001.199	85.8
1001.361	17.99
1001.524	75.14
1001.687	84.25
1001.849	35.42
1002.012	30.19
1002.174	73.79
1002.337	60.42
1002.499	55.19
1002.661	93.35
1002.824	13.72
1002.986	7.72
1003.149	28.45
1003.311	29.42
1003.473	98
1003.636	25.54
1003.798	64.49
1003.96	75.72
1004.123	39.1
1004.285	30.39
1004.447	30
1004.609	55.38
1004.771	106.72
1004.933	4.42
1005.096	24.19
1005.258	-17.86
1005.42	22.05
1005.582	84.83
1005.744	68.17
1005.906	-8.75
1006.068	47.05
1006.23	31.16
1006.392	-16.89
1006.554	1.32
1006.716	53.25
1006.878	57.51
1007.04	-4.68
1007.202	34.65
1007.363	53.64
1007.525	71.07
1007.687	68.94
1007.849	76.3
1008.011	-8.94
1008.172	3.46
1008.334	45.69
1008.496	63.13
1008.658	-24.25
1008.819	-2.16
1008.981	1.71
1009.143	13.34
1009.304	17.79
1009.466	58.67
1009.627	94.71
1009.789	133.46
1009.95	49.18
1010.112	11.98
1010.273	33.68
1010.435	18.57
1010.596	18.76
1010.758	4.23
1010.919	10.82
1011.081	-19.6
1011.242	16.44
1011.403	63.71
1011.565	33.1
1011.726	37.17
1011.887	6.17
1012.049	15.85
1012.21	40.46
1012.371	97.04
1012.532	-29.68
1012.693	53.05
1012.855	3.65
1013.016	17.02
1013.177	66.62
1013.338	18.37
1013.499	97.81
1013.66	60.61
1013.821	48.6
1013.982	34.45
1014.143	26.9
1014.304	17.02
1014.465	35.62
1014.626	53.05
1014.787	26.9
1014.948	122.61
1015.109	-24.83
1015.27	58.29
1015.431	18.37
1015.592	2.49
1015.752	46.27
1015.913	31.16
1016.074	57.9
1016.235	24.57
1016.395	25.54
1016.556	21.86
1016.717	9.27
1016.877	75.53
1017.038	12.56
1017.199	25.35
1017.359	30.19
1017.52	31.94
1017.681	-0.81
1017.841	50.15
1018.002	37.17
1018.162	16.05
1018.323	78.82
1018.483	15.66
1018.644	6.56
1018.804	-12.43
1018.964	-28.71
1019.125	-6.04
1019.285	42.59
1019.446	-5.07
1019.606	-17.86
1019.766	-32.97
1019.926	43.56
1020.087	15.08
1020.247	4.42
1020.407	53.05
1020.567	74.75
1020.728	29.61
1020.888	-12.43
1021.048	28.25
1021.208	-23.86
1021.368	-3.33
1021.528	71.07
1021.688	51.7
1021.848	22.05
1022.008	36.59
1022.168	16.44
1022.328	21.47
1022.488	17.6
1022.648	9.07
1022.808	18.57
1022.968	14.69
1023.128	-13.79
1023.288	10.43
1023.448	19.15
1023.608	24.77
1023.767	55.19
1023.927	13.34
1024.087	-2.74
1024.247	-15.14
1024.406	27.87
1024.566	0.74
1024.726	-5.07
1024.885	5.59
1025.045	37.36
1025.205	20.89
1025.364	21.86
1025.524	33.29
1025.683	4.62
1025.843	43.17
1026.003	-11.27
1026.162	65.07
1026.321	61.39
1026.481	12.56
1026.64	-6.62
1026.8	20.89
1026.959	24.57
1027.119	34.26
1027.278	5.2
1027.437	6.17
1027.597	19.73
1027.756	24.96
1027.915	24.19
1028.074	42.98
1028.234	-1.19
1028.393	17.21
1028.552	13.72
1028.711	-50.41
1028.87	25.93
1029.03	-29.68
1029.189	15.47
1029.348	-34.91
1029.507	-17.08
1029.666	9.66
1029.825	-45.76
1029.984	-36.26
1030.143	29.8
1030.302	-6.81
1030.461	-57.38
1030.62	18.37
1030.779	33.49
1030.938	-11.08
1031.097	-18.83
1031.255	25.93
1031.414	38.91
1031.573	33.29
1031.732	-54.86
1031.891	-5.84
1032.049	67.97
1032.208	-0.42
1032.367	9.85
1032.525	-8.56
1032.684	-10.11
1032.843	37.94
1033.001	-28.13
1033.16	161.17
1033.319	44.92
1033.477	59.06
1033.636	-7.78
1033.794	-24.25
1033.953	7.52
1034.111	52.47
1034.27	7.33
1034.428	38.14
1034.587	-22.51
1034.745	11.79
1034.903	8.88
1035.062	42.01
1035.22	-33.94
1035.378	49.76
1035.537	-9.91
1035.695	50.92
1035.853	17.99
1036.011	25.74
1036.17	11.59
1036.328	-57.96
1036.486	-9.14
1036.644	23.22
1036.802	-78.69
1036.96	-12.43
1037.119	-16.31
1037.277	-20.38
1037.435	-29.48
1037.593	-17.66
1037.751	-0.23
1037.909	31.74
1038.067	31.74
