Data from oakcork_FLMT105791__240__17-33-11-055.txt Node

Date: Mon Mar 20 17:33:11 GMT 2023
User: antho
Spectrometer: FLMT10579
Trigger mode: 0
Integration Time (sec): 1.000000E-1
Scans to average: 10
Electric dark correction enabled: true
Nonlinearity correction enabled: false
Boxcar width: 0
XAxis mode: Wavelengths
Number of Pixels in Spectrum: 3648
>>>>>Begin Spectral Data<<<<<
345.248	-141.21
345.464	-141.21
345.681	-141.21
345.898	-160.2
346.114	-147.22
346.331	-28.45
346.548	25.22
346.764	-17.4
346.981	3.91
347.197	-3.84
347.414	30.45
347.631	-22.05
347.847	55.25
348.064	3.71
348.28	16.11
348.497	-40.46
348.713	-22.44
348.93	30.84
349.146	13.79
349.363	22.51
349.579	27.74
349.796	5.26
350.012	1
350.229	23.67
350.445	21.54
350.661	-10.82
350.878	7.78
351.094	33.16
351.311	36.07
351.527	63.39
351.743	2.74
351.96	19.99
352.176	39.94
352.392	22.7
352.609	15.92
352.825	-14.5
353.041	14.37
353.257	2.16
353.474	18.63
353.69	-5.97
353.906	26.96
354.122	4.49
354.339	45.56
354.555	25.41
354.771	-11.98
354.987	56.22
355.203	54.09
355.42	27.16
355.636	-7.52
355.852	5.65
356.068	25.41
356.284	-17.79
356.5	87.99
356.716	28.71
356.932	28.71
357.148	24.44
357.364	10.11
357.58	35.29
357.796	63.19
358.012	55.06
358.228	24.83
358.444	-62.74
358.66	57.96
358.876	41.11
359.092	-4.04
359.308	11.85
359.524	43.04
359.74	24.83
359.956	-13.34
360.172	47.89
360.388	64.74
360.604	15.34
360.819	72.49
361.035	34.13
361.251	39.56
361.467	8.56
361.683	65.71
361.898	42.08
362.114	44.01
362.33	64.55
362.546	39.36
362.762	15.73
362.977	16.89
363.193	-11.01
363.409	53.12
363.624	2.16
363.84	-9.66
364.056	17.28
364.271	59.51
364.487	31.81
364.703	28.13
364.918	-8.49
365.134	7.98
365.35	10.69
365.565	104.66
365.781	31.61
365.996	39.94
366.212	73.46
366.427	35.68
366.643	14.37
366.858	19.41
367.074	-9.85
367.289	64.94
367.505	120.74
367.72	-0.55
367.936	-2.87
368.151	75.59
368.367	62.23
368.582	43.82
368.798	35.29
369.013	78.11
369.228	59.51
369.444	44.4
369.659	91.09
369.874	32.97
370.09	65.71
370.305	-12.17
370.52	26.19
370.736	94.97
370.951	39.56
371.166	67.46
371.381	101.36
371.597	55.06
371.812	11.27
372.027	14.76
372.242	35.68
372.458	115.31
372.673	16.89
372.888	53.89
373.103	75.01
373.318	137.98
373.533	44.79
373.749	73.85
373.964	-4.23
374.179	84.12
374.394	18.24
374.609	69.01
374.824	18.83
375.039	71.33
375.254	34.91
375.469	68.62
375.684	48.08
375.899	79.47
376.114	40.33
376.329	35.1
376.544	69.2
376.759	65.52
376.974	7.59
377.189	26.77
377.404	20.57
377.619	74.62
377.834	12.63
378.049	16.31
378.264	19.41
378.478	63
378.693	20.76
378.908	55.06
379.123	46.14
379.338	75.79
379.553	35.29
379.767	51.38
379.982	79.66
380.197	58.54
380.412	41.3
380.626	51.76
380.841	103.3
381.056	81.02
381.271	108.14
381.485	32.78
381.7	26.19
381.915	73.27
382.129	17.28
382.344	67.65
382.559	52.73
382.773	54.09
382.988	5.84
383.202	72.3
383.417	7.78
383.632	128.87
383.846	33.36
384.061	52.54
384.275	32.78
384.49	54.67
384.704	56.41
384.919	65.71
385.133	42.46
385.348	86.25
385.562	27.54
385.777	81.41
385.991	60.09
386.206	63
386.42	50.79
386.634	112.99
386.849	80.44
387.063	77.72
387.277	37.81
387.492	47.5
387.706	36.84
387.92	25.99
388.135	62.42
388.349	75.59
388.563	65.13
388.778	49.24
388.992	95.55
389.206	84.7
389.42	135.07
389.635	74.24
389.849	53.89
390.063	106.79
390.277	81.02
390.491	138.37
390.706	89.54
390.92	100.01
391.134	75.4
391.348	120.16
391.562	32
391.776	71.33
391.99	63.78
392.205	102.52
392.419	75.59
392.633	56.22
392.847	114.73
393.061	29.68
393.275	117.25
393.489	66.88
393.703	53.12
393.917	84.12
394.131	32.58
394.345	94.77
394.559	97.68
394.773	85.09
394.986	87.22
395.2	77.34
395.414	127.52
395.628	40.53
395.842	113.57
396.056	118.8
396.27	28.32
396.484	84.51
396.697	65.52
396.911	130.81
397.125	88.96
397.339	100.39
397.553	55.83
397.766	134.11
397.98	101.56
398.194	124.03
398.408	95.74
398.621	170.53
398.835	145.73
399.049	151.16
399.262	155.61
399.476	174.02
399.69	156.97
399.903	210.05
400.117	124.03
400.331	163.94
400.544	129.84
400.758	225.94
400.971	172.08
401.185	166.46
401.398	112.79
401.612	194.17
401.826	188.35
402.039	175.76
402.253	142.63
402.466	186.42
402.68	155.61
402.893	165.3
403.106	174.21
403.32	139.34
403.533	190.87
403.747	162.2
403.96	167.82
404.174	202.11
404.387	121.9
404.6	160.84
404.814	199.4
405.027	208.31
405.24	171.89
405.454	193.97
405.667	199.4
405.88	128.29
406.094	185.84
406.307	205.6
406.52	171.69
406.733	133.72
406.947	115.31
407.16	212.57
407.373	226.14
407.586	160.84
407.799	147.28
408.012	200.56
408.226	187
408.439	231.17
408.652	140.31
408.865	202.5
409.078	226.14
409.291	216.45
409.504	186.61
409.717	215.29
409.93	228.27
410.143	202.89
410.357	142.82
410.57	126.74
410.783	168.79
410.996	185.45
411.209	202.89
411.421	245.32
411.634	210.64
411.847	194.94
412.06	192.23
412.273	214.32
412.486	236.79
412.699	290.85
412.912	236.79
413.125	253.84
413.338	225.94
413.55	248.22
413.763	217.22
413.976	213.93
414.189	190.49
414.402	238.15
414.615	242.99
414.827	183.12
415.04	248.22
415.253	233.11
415.466	273.41
415.678	262.17
415.891	227.88
416.104	230.2
416.316	191.26
416.529	212.77
416.742	280.77
416.954	287.94
417.167	246.67
417.38	236.02
417.592	264.88
417.805	195.52
418.017	193.78
418.23	274.77
418.442	207.34
418.655	239.31
418.868	215.29
419.08	271.86
419.293	274.57
419.505	258.3
419.718	254.03
419.93	275.15
420.142	216.84
420.355	284.26
420.567	279.42
420.78	263.14
420.992	250.93
421.205	298.6
421.417	212.38
421.629	222.45
421.842	223.23
422.054	196.88
422.266	300.73
422.479	324.17
422.691	250.93
422.903	280.19
423.115	248.42
423.328	244.54
423.54	255.39
423.752	265.08
423.964	252.87
424.177	272.63
424.389	265.66
424.601	347.23
424.813	278.06
425.025	304.8
425.238	298.98
425.45	274.77
425.662	259.85
425.874	541.75
426.086	253.26
426.298	314.29
426.51	290.27
426.722	298.98
426.934	239.7
427.146	294.14
427.358	242.22
427.57	284.26
427.782	282.13
427.994	281.74
428.206	260.23
428.418	219.94
428.63	298.4
428.842	325.53
429.054	302.28
429.266	291.82
429.478	256.36
429.69	271.47
429.902	234.47
430.114	265.47
430.325	269.53
430.537	234.08
430.749	243.77
430.961	196.49
431.173	216.06
431.384	268.76
431.596	199.98
431.808	256.75
432.02	291.82
432.231	348.58
432.443	344.71
432.655	344.32
432.867	270.31
433.078	325.53
433.29	397.02
433.502	362.73
433.713	366.6
433.925	360.98
434.136	366.21
434.348	301.12
434.56	269.92
434.771	394.11
434.983	269.92
435.194	327.66
435.406	337.35
435.617	392.56
435.829	409.23
436.04	384.43
436.252	381.52
436.463	427.24
436.675	394.5
436.886	410.39
437.098	383.07
437.309	439.45
437.521	364.47
437.732	393.73
437.943	377.65
438.155	385.2
438.366	324.56
438.578	425.69
438.789	348.97
439	381.91
439.211	352.85
439.423	381.13
439.634	426.66
439.845	400.9
440.057	399.54
440.268	428.6
440.479	390.63
440.69	410.78
440.902	378.23
441.113	397.99
441.324	396.63
441.535	419.69
441.746	492.34
441.957	407.87
442.168	425.11
442.38	440.61
442.591	449.53
442.802	409.61
443.013	443.71
443.224	468.32
443.435	434.8
443.646	453.21
443.857	425.69
444.068	465.22
444.279	425.5
444.49	528.38
444.701	449.14
444.912	547.37
445.123	477.04
445.334	474.91
445.545	494.67
445.756	439.64
445.967	404.19
446.178	442.74
446.388	473.94
446.599	489.24
446.81	493.51
447.021	439.84
447.232	485.18
447.443	532.26
447.653	439.64
447.864	527.02
448.075	489.63
448.286	518.11
448.496	515.98
448.707	535.94
448.918	474.71
449.129	574.11
449.339	467.35
449.55	526.64
449.761	511.91
449.971	547.95
450.182	525.28
450.393	554.15
450.603	487.11
450.814	574.88
451.024	533.22
451.235	572.36
451.446	593.48
451.656	600.84
451.867	508.81
452.077	546.21
452.288	589.02
452.498	589.99
452.709	530.71
452.919	544.07
453.13	485.18
453.34	528.19
453.55	468.71
453.761	552.41
453.971	545.82
454.182	564.81
454.392	541.75
454.602	587.28
454.813	571.2
455.023	583.02
455.233	491.57
455.444	564.42
455.654	495.83
455.864	553.57
456.075	553.18
456.285	517.34
456.495	551.63
456.705	574.49
456.916	630.1
457.126	605.69
457.336	545.43
457.546	496.99
457.756	538.26
457.967	601.42
458.177	553.76
458.387	592.9
458.597	535.55
458.807	574.88
459.017	557.64
459.227	533.03
459.437	540.2
459.647	595.61
459.857	564.81
460.068	559.57
460.278	610.53
460.488	570.62
460.698	661.68
460.908	601.42
461.117	571.39
461.327	545.43
461.537	638.43
461.747	599.49
461.957	621.38
462.167	719.22
462.377	636.1
462.587	631.65
462.797	628.55
463.007	646.18
463.216	652.77
463.426	690.16
463.636	661.29
463.846	585.54
464.056	604.14
464.265	650.83
464.475	602.78
464.685	639.59
464.895	633.2
465.104	611.69
465.314	631.65
465.524	637.46
465.733	593.87
465.943	699.65
466.153	699.46
466.362	668.07
466.572	669.82
466.782	627.77
466.991	649.47
467.201	702.95
467.41	598.13
467.62	660.9
467.829	673.89
468.039	665.17
468.249	663.62
468.458	677.37
468.668	696.17
468.877	696.17
469.086	721.93
469.296	749.83
469.505	684.73
469.715	785.68
469.924	715.73
470.134	767.85
470.343	758.17
470.552	713.02
470.762	693.07
470.971	669.62
471.18	741.12
471.39	726
471.599	694.23
471.808	762.62
472.018	726.58
472.227	774.25
472.436	820.94
472.645	774.83
472.855	747.32
473.064	808.15
473.273	790.33
473.482	805.83
473.691	855.04
473.901	818.42
474.11	787.03
474.319	885.07
474.528	811.25
474.737	876.54
474.946	839.54
475.155	863.56
475.364	883.33
475.573	880.03
475.783	887.01
475.992	870.93
476.201	881.97
476.41	832.37
476.619	823.07
476.828	873.06
477.037	842.45
477.245	842.83
477.454	872.67
477.663	878.68
477.872	918.2
478.081	978.26
478.29	864.73
478.499	1012.56
478.708	940.48
478.917	996.28
479.125	941.26
479.334	968.57
479.543	946.29
479.752	955.01
479.961	964.12
480.169	1070.68
480.378	973.81
480.587	1106.91
480.796	1027.09
481.004	1025.92
481.213	1042
481.422	1027.86
481.63	1055.37
481.839	1068.16
482.048	1117.76
482.256	1085.79
482.465	1112.53
482.674	1110.2
482.882	1117.37
483.091	1144.3
483.299	1103.62
483.508	1129.58
483.716	1116.99
483.925	1113.3
484.134	1061.19
484.342	1080.75
484.551	1149.73
484.759	1136.75
484.967	1177.24
485.176	1190.42
485.384	1179.18
485.593	1175.3
485.801	1113.69
486.01	1091.8
486.218	1077.07
486.426	978.46
486.635	974.39
486.843	1006.36
487.051	1052.08
487.26	1045.1
487.468	1089.28
487.676	1122.8
487.885	1131.32
488.093	1160.19
488.301	1182.28
488.509	1169.68
488.717	1236.14
488.926	1231.88
489.134	1189.45
489.342	1207.27
489.55	1175.5
489.758	1190.61
489.967	1238.85
490.175	1325.07
490.383	1277.41
490.591	1337.28
490.799	1226.06
491.007	1338.24
491.215	1304.92
491.423	1265.2
491.631	1289.42
491.839	1282.64
492.047	1345.99
492.255	1234.59
492.463	1220.64
492.671	1283.61
492.879	1311.31
493.087	1294.07
493.295	1311.89
493.503	1320.03
493.711	1389.78
493.919	1385.71
494.127	1368.28
494.334	1411.87
494.542	1310.54
494.75	1412.64
494.958	1362.66
495.166	1433.57
495.374	1397.72
495.581	1419.62
495.789	1420.2
495.997	1433.57
496.205	1385.13
496.412	1381.84
496.62	1410.12
496.828	1403.54
497.035	1428.14
497.243	1443.64
497.451	1448.68
497.658	1457.01
497.866	1433.96
498.074	1507.39
498.281	1386.68
498.489	1496.92
498.696	1437.64
498.904	1433.96
499.112	1398.69
499.319	1489.17
499.527	1452.56
499.734	1478.32
499.942	1417.87
500.149	1425.04
500.357	1456.24
500.564	1370.99
500.771	1427.37
500.979	1401.02
501.186	1423.3
501.394	1430.66
501.601	1413.22
501.808	1426.79
502.016	1369.44
502.223	1410.51
502.43	1404.51
502.638	1405.09
502.845	1435.31
503.052	1517.85
503.26	1420.01
503.467	1547.88
503.674	1466.7
503.881	1457.21
504.089	1525.79
504.296	1470.96
504.503	1401.02
504.71	1454.88
504.917	1440.93
505.125	1481.62
505.332	1478.9
505.539	1534.12
505.746	1589.34
505.953	1555.05
506.16	1576.36
506.367	1595.15
506.574	1632.74
506.781	1613.75
506.988	1540.71
507.195	1552.92
507.402	1541.68
507.609	1577.91
507.816	1496.92
508.023	1544.97
508.23	1513.78
508.437	1492.08
508.644	1552.14
508.851	1584.69
509.058	1592.05
509.265	1598.25
509.472	1612.01
509.679	1692.41
509.885	1592.83
510.092	1613.56
510.299	1609.1
510.506	1609.68
510.713	1606
510.92	1607.55
511.126	1607.36
511.333	1632.93
511.54	1656.96
511.746	1674.98
511.953	1694.74
512.16	1708.3
512.367	1661.61
512.573	1661.22
512.78	1650.37
512.987	1637.2
513.193	1634.48
513.4	1580.04
513.606	1680.01
513.813	1657.93
514.02	1651.15
514.226	1677.3
514.433	1669.94
514.639	1618.4
514.846	1664.51
515.052	1628.28
515.259	1677.11
515.465	1680.4
515.672	1652.5
515.878	1724
516.085	1705.01
516.291	1726.32
516.497	1674.01
516.704	1603.48
516.91	1588.37
517.117	1523.27
517.323	1462.05
517.529	1531.22
517.736	1504.09
517.942	1539.94
518.148	1563.18
518.354	1584.11
518.561	1556.6
518.767	1585.47
518.973	1602.52
519.179	1657.73
519.386	1577.33
519.592	1597.28
519.798	1649.98
520.004	1761.78
520.21	1722.06
520.417	1762.94
520.623	1778.63
520.829	1773.59
521.035	1798.98
521.241	1767.2
521.447	1813.31
521.653	1885.77
521.859	1759.45
522.065	1823.58
522.271	1900.69
522.477	1870.27
522.683	1909.6
522.889	1836.76
523.095	1854.39
523.301	1844.89
523.507	1808.86
523.713	1845.09
523.919	1798.98
524.125	1909.6
524.331	1874.15
524.537	1983.42
524.742	1954.75
524.948	1952.23
525.154	1969.67
525.36	2050.46
525.566	1971.02
525.772	1999.12
525.977	1941.38
526.183	2001.63
526.389	2012.48
526.595	1865.04
526.8	1890.62
527.006	1836.56
527.212	1805.95
527.417	1793.94
527.623	1797.81
527.829	1849.74
528.034	1883.45
528.24	1938.86
528.446	1933.63
528.651	1974.51
528.857	1979.94
529.062	2047.36
529.268	2053.75
529.473	2062.67
529.679	2063.44
529.884	2144.23
530.09	2081.65
530.295	2047.36
530.501	2093.66
530.706	2101.61
530.912	2074.29
531.117	2102.77
531.323	2102.19
531.528	2167.48
531.733	2140.94
531.939	2154.11
532.144	2119.05
532.35	2124.47
532.555	2165.93
532.76	2117.11
532.966	2123.11
533.171	2077.58
533.376	2027.21
533.581	2071.97
533.787	2094.05
533.992	2136.29
534.197	2117.3
534.402	2122.73
534.607	2146.56
534.813	2228.51
535.018	2166.51
535.223	2162.25
535.428	2184.73
535.633	2239.75
535.838	2223.09
536.043	2230.84
536.249	2321.9
536.454	2213.59
536.659	2255.83
536.864	2236.65
537.069	2193.25
537.274	2236.07
537.479	2254.09
537.684	2229.87
537.889	2175.62
538.094	2298.07
538.299	2259.12
538.504	2232.39
538.708	2270.17
538.913	2338.37
539.118	2281.6
539.323	2307.37
539.528	2288.77
539.733	2238.98
539.938	2290.71
540.142	2270.94
540.347	2228.71
540.552	2194.61
540.757	2181.43
540.962	2257.57
541.166	2134.74
541.371	2119.82
541.576	2200.61
541.781	2126.02
541.985	2257.77
542.19	2223.48
542.395	2318.99
542.599	2333.91
542.804	2318.8
543.008	2367.24
543.213	2268.23
543.418	2258.35
543.622	2304.27
543.827	2239.17
544.031	2315.89
544.236	2381.38
544.44	2336.43
544.645	2421.29
544.849	2295.94
545.054	2394.94
545.258	2444.15
545.463	2400.95
545.667	2313.37
545.872	2386.03
546.076	2382.15
546.281	2364.14
546.485	2340.31
546.689	2376.73
546.894	2400.37
547.098	2397.46
547.302	2358.13
547.507	2339.34
547.711	2389.71
547.915	2402.3
548.119	2347.09
548.324	2340.69
548.528	2414.12
548.732	2336.04
548.936	2403.47
549.141	2399.98
549.345	2403.27
549.549	2448.42
549.753	2416.25
549.957	2459.27
550.161	2442.02
550.366	2446.87
550.57	2374.6
550.774	2398.43
550.978	2394.55
551.182	2414.32
551.386	2366.46
551.59	2418.77
551.794	2371.69
551.998	2434.66
552.202	2425.55
552.406	2372.47
552.61	2418.97
552.814	2411.02
553.018	2484.26
553.222	2389.32
553.426	2375.57
553.63	2474.96
553.833	2419.16
554.037	2389.13
554.241	2423.62
554.445	2428.46
554.649	2429.24
554.853	2408.5
555.056	2443.96
555.26	2472.63
555.464	2412.77
555.668	2435.05
555.871	2460.23
556.075	2497.43
556.279	2434.85
556.483	2425.55
556.686	2370.34
556.89	2414.32
557.094	2383.51
557.297	2295.55
557.501	2380.8
557.704	2296.32
557.908	2397.07
558.112	2355.03
558.315	2437.18
558.519	2368.2
558.722	2366.07
558.926	2310.08
559.129	2249.05
559.333	2253.51
559.536	2259.32
559.74	2245.37
559.943	2247.31
560.147	2260.48
560.35	2260.09
560.553	2326.16
560.757	2266.49
560.96	2370.72
561.164	2305.82
561.367	2369.75
561.57	2286.25
561.774	2306.21
561.977	2244.01
562.18	2276.76
562.384	2391.84
562.587	2247.11
562.79	2267.26
562.993	2257.19
563.197	2314.54
563.4	2343.41
563.603	2310.27
563.806	2359.1
564.009	2244.21
564.212	2270.75
564.416	2207.78
564.619	2255.44
564.822	2202.74
565.025	2283.92
565.228	2266.1
565.431	2264.55
565.634	2183.18
565.837	2180.08
566.04	2169.42
566.243	2167.87
566.446	2112.26
566.649	2205.65
566.852	2128.35
567.055	2162.83
567.258	2193.25
567.461	2250.21
567.664	2260.87
567.867	2151.4
568.07	2201.19
568.273	2167.48
568.475	2244.98
568.678	2164.77
568.881	2152.95
569.084	2109.36
569.287	2047.17
569.489	2046.39
569.692	2118.46
569.895	2081.27
570.098	2031.08
570.3	2018.68
570.503	1965.4
570.706	2015.78
570.909	1976.06
571.111	1961.53
571.314	1967.92
571.516	1989.82
571.719	1997.76
571.922	1987.1
572.124	1986.14
572.327	1984.59
572.529	1977.42
572.732	1972.96
572.935	2021.98
573.137	2047.75
573.34	1965.02
573.542	2025.27
573.745	2017.33
573.947	2026.05
574.15	2002.99
574.352	1933.82
574.554	2042.9
574.757	1967.34
574.959	1931.5
575.162	1966.95
575.364	1938.09
575.566	2021.01
575.769	1926.27
575.971	1942.93
576.173	1851.48
576.376	1921.62
576.578	1969.67
576.78	1993.89
576.982	1863.3
577.185	1922.97
577.387	1859.62
577.589	1904.96
577.791	1966.18
577.993	1947.58
578.196	1903.79
578.398	1891.78
578.6	1925.88
578.802	1868.14
579.004	1851.87
579.206	1844.7
579.408	1908.64
579.61	1882.67
579.812	1959.2
580.014	1860.2
580.216	1865.24
580.418	1909.99
580.62	1855.74
580.822	1907.47
581.024	1875.7
581.226	1927.82
581.428	1868.53
581.63	2016.55
581.832	1901.08
582.034	1951.45
582.236	1927.43
582.438	1950.87
582.64	1965.21
582.841	1993.11
583.043	2022.56
583.245	1961.72
583.447	1991.56
583.649	1922.78
583.85	1951.07
584.052	1956.88
584.254	1925.1
584.456	2016.36
584.657	1912.51
584.859	1950.87
585.061	1878.22
585.262	1950.87
585.464	1887.13
585.666	1926.07
585.867	1880.16
586.069	1944.09
586.27	1896.24
586.472	1875.31
586.674	1833.46
586.875	1875.51
587.077	1878.61
587.278	1876.67
587.48	1869.11
587.681	1969.86
587.883	1894.69
588.084	1838.31
588.285	1856.13
588.487	1806.14
588.688	1852.45
588.89	1729.42
589.091	1734.84
589.292	1704.23
589.494	1629.83
589.695	1621.12
589.896	1583.72
590.098	1552.72
590.299	1648.82
590.5	1608.72
590.702	1624.22
590.903	1704.23
591.104	1745.69
591.305	1711.98
591.507	1782.12
591.708	1761.19
591.909	1729.81
592.11	1786.38
592.311	1767.01
592.512	1744.53
592.714	1692.22
592.915	1702.68
593.116	1694.93
593.317	1761.39
593.518	1737.36
593.719	1750.73
593.92	1804.01
594.121	1774.37
594.322	1767.98
594.523	1738.91
594.724	1692.61
594.925	1671.68
595.126	1722.45
595.327	1723.8
595.528	1717.41
595.729	1736.78
595.929	1717.6
596.13	1722.25
596.331	1750.93
596.532	1744.73
596.733	1810.21
596.934	1776.5
597.135	1781.54
597.335	1793.55
597.536	1719.54
597.737	1734.07
597.938	1746.08
598.138	1745.11
598.339	1708.3
598.54	1738.33
598.74	1752.67
598.941	1781.54
599.142	1769.14
599.342	1763.91
599.543	1755.38
599.744	1736.01
599.944	1738.91
600.145	1746.66
600.345	1789.29
600.546	1825.52
600.746	1857.68
600.947	1814.48
601.147	1746.66
601.348	1819.51
601.548	1728.45
601.749	1770.3
601.949	1711.01
602.15	1746.86
602.35	1697.26
602.551	1770.69
602.751	1725.93
602.951	1735.43
603.152	1669.75
603.352	1781.15
603.552	1773.59
603.753	1795.49
603.953	1787.16
604.153	1793.36
604.354	1785.22
604.554	1795.29
604.754	1773.21
604.954	1718.96
605.155	1821.64
605.355	1755.96
605.555	1789.48
605.755	1822.03
605.955	1757.9
606.155	1783.09
606.356	1768.75
606.556	1765.84
606.756	1793.74
606.956	1709.85
607.156	1829.59
607.356	1732.52
607.556	1784.83
607.756	1769.33
607.956	1813.12
608.156	1762.74
608.356	1715.86
608.556	1780.76
608.756	1738.72
608.956	1736.2
609.156	1739.69
609.356	1747.05
609.556	1708.69
609.755	1739.49
609.955	1672.65
610.155	1733.49
610.355	1729.23
610.555	1697.65
610.755	1760.03
610.954	1659.28
611.154	1697.65
611.354	1740.08
611.554	1727.48
611.753	1732.71
611.953	1632.55
612.153	1730.58
612.352	1745.11
612.552	1658.31
612.752	1661.41
612.951	1669.36
613.151	1690.09
613.351	1651.15
613.55	1674.59
613.75	1644.17
613.949	1642.04
614.149	1662.38
614.348	1661.8
614.548	1606
614.747	1577.52
614.947	1619.76
615.146	1584.88
615.346	1679.05
615.545	1622.28
615.745	1657.35
615.944	1674.59
616.144	1594.57
616.343	1609.68
616.542	1619.18
616.742	1578.49
616.941	1560.08
617.14	1553.5
617.34	1591.86
617.539	1599.42
617.738	1578.68
617.938	1632.16
618.137	1583.33
618.336	1558.15
618.535	1647.66
618.734	1592.25
618.934	1606.78
619.133	1632.35
619.332	1661.22
619.531	1579.46
619.73	1601.35
619.929	1672.46
620.128	1646.3
620.328	1684.86
620.527	1600
620.726	1593.99
620.925	1623.83
621.124	1592.63
621.323	1620.73
621.522	1548.46
621.721	1593.8
621.92	1556.6
622.119	1594.38
622.318	1572.29
622.517	1556.21
622.715	1536.25
622.914	1501.77
623.113	1517.27
623.312	1485.69
623.511	1555.44
623.71	1527.34
623.909	1531.8
624.107	1600.58
624.306	1456.82
624.505	1522.11
624.704	1507.77
624.902	1496.73
625.101	1548.65
625.3	1525.6
625.499	1452.56
625.697	1508.74
625.896	1466.31
626.095	1496.34
626.293	1431.44
626.492	1469.02
626.69	1512.04
626.889	1447.13
627.088	1536.64
627.286	1458.37
627.485	1465.15
627.683	1458.17
627.882	1443.84
628.08	1327.01
628.279	1406.83
628.477	1478.71
628.676	1396.76
628.874	1438.22
629.073	1363.63
629.271	1371.57
629.469	1420.97
629.668	1409.54
629.866	1413.81
630.065	1407.22
630.263	1431.63
630.461	1401.02
630.66	1425.62
630.858	1396.76
631.056	1427.95
631.254	1483.75
631.453	1395.4
631.651	1416.32
631.849	1415.16
632.047	1429.89
632.245	1422.14
632.444	1400.05
632.642	1427.95
632.84	1465.73
633.038	1404.51
633.236	1420.39
633.434	1413.42
633.632	1418.46
633.83	1402.76
634.028	1451.2
634.227	1448.29
634.425	1539.55
634.623	1437.06
634.821	1462.24
635.019	1445
635.216	1453.72
635.414	1465.54
635.612	1460.69
635.81	1445
636.008	1488.98
636.206	1411.87
636.404	1461.86
636.602	1414.58
636.8	1449.07
636.997	1497.5
637.195	1494.6
637.393	1470.19
637.591	1503.12
637.789	1446.74
637.986	1455.66
638.184	1462.44
638.382	1509.71
638.58	1489.75
638.777	1513.78
638.975	1456.24
639.173	1461.86
639.37	1471.93
639.568	1478.52
639.765	1489.95
639.963	1418.65
640.161	1495.76
640.358	1496.15
640.556	1418.84
640.753	1419.42
640.951	1405.28
641.148	1445.97
641.346	1406.06
641.543	1450.42
641.741	1432.99
641.938	1401.21
642.136	1412.84
642.333	1364.01
642.531	1469.61
642.728	1473.67
642.925	1446.36
643.123	1419.04
643.32	1459.92
643.517	1435.89
643.715	1401.02
643.912	1386.87
644.109	1397.72
644.306	1446.94
644.504	1411.67
644.701	1414.97
644.898	1437.25
645.095	1409.16
645.293	1415.55
645.49	1443.64
645.687	1422.14
645.884	1427.56
646.081	1355.49
646.278	1361.69
646.475	1361.49
646.672	1357.23
646.87	1382.61
647.067	1355.29
647.264	1341.93
647.461	1312.48
647.658	1252.03
647.855	1359.56
648.052	1310.15
648.249	1217.93
648.446	1309.38
648.642	1293.49
648.839	1310.73
649.036	1308.6
649.233	1240.21
649.43	1237.69
649.627	1231.1
649.824	1250.09
650.021	1244.66
650.217	1268.88
650.414	1267.91
650.611	1335.14
650.808	1365.95
651.004	1316.74
651.201	1342.12
651.398	1352.97
651.595	1300.46
651.791	1278.96
651.988	1298.53
652.185	1248.15
652.381	1287.48
652.578	1228.97
652.775	1291.94
652.971	1306.86
653.168	1257.84
653.364	1301.82
653.561	1256.68
653.757	1307.05
653.954	1315.38
654.15	1231.88
654.347	1337.08
654.543	1300.46
654.74	1211.53
654.936	1232.65
655.133	1246.21
655.329	1276.63
655.525	1225.48
655.722	1269.46
655.918	1174.72
656.115	1209.98
656.311	1134.23
656.507	1080.56
656.704	1070.87
656.9	1112.53
657.096	1099.94
657.292	1122.8
657.489	1205.14
657.685	1181.5
657.881	1166.39
658.077	1176.27
658.273	1208.82
658.47	1264.23
658.666	1213.66
658.862	1263.65
659.058	1205.53
659.254	1239.63
659.45	1204.56
659.646	1220.45
659.842	1233.43
660.038	1268.11
660.234	1190.22
660.43	1250.67
660.626	1324.68
660.822	1271.6
661.018	1286.32
661.214	1240.21
661.41	1212.7
661.606	1291.36
661.802	1315.77
661.998	1283.03
662.194	1248.93
662.39	1261.33
662.586	1293.88
662.781	1287.68
662.977	1278.76
663.173	1269.46
663.369	1243.89
663.564	1285.55
663.76	1280.31
663.956	1264.43
664.152	1297.17
664.347	1230.91
664.543	1262.3
664.739	1248.93
664.934	1189.45
665.13	1206.88
665.326	1277.41
665.521	1288.26
665.717	1201.46
665.912	1222.77
666.108	1160.77
666.304	1230.71
666.499	1241.95
666.695	1166.39
666.89	1207.27
667.086	1231.3
667.281	1220.45
667.477	1296.78
667.672	1224.71
667.867	1203.2
668.063	1262.3
668.258	1200.3
668.454	1215.41
668.649	1254.74
668.844	1245.44
669.04	1245.83
669.235	1189.06
669.43	1208.43
669.626	1176.85
669.821	1196.42
670.016	1194.1
670.211	1205.33
670.407	1162.32
670.602	1212.5
670.797	1185.77
670.992	1228
671.187	1173.75
671.382	1198.94
671.578	1139.27
671.773	1197.58
671.968	1110.79
672.163	1175.3
672.358	1178.6
672.553	1135.2
672.748	1174.14
672.943	1227.61
673.138	1168.72
673.333	1197.39
673.528	1131.52
673.723	1183.83
673.918	1170.07
674.113	1149.15
674.308	1261.13
674.503	1201.65
674.698	1248.73
674.892	1174.14
675.087	1200.49
675.282	1176.47
675.477	1122.8
675.672	1190.22
675.867	1138.3
676.061	1133.45
676.256	1117.18
676.451	1153.8
676.646	1147.21
676.84	1137.91
677.035	1140.62
677.23	1152.44
677.424	1150.5
677.619	1175.88
677.814	1177.05
678.008	1181.7
678.203	1122.22
678.397	1160.19
678.592	1129.58
678.787	1220.64
678.981	1113.11
679.176	1151.28
679.37	1152.25
679.565	1101.29
679.759	1164.84
679.954	1169.88
680.148	1149.34
680.342	1173.75
680.537	1161.74
680.731	1116.6
680.926	1172.59
681.12	1174.53
681.314	1120.47
681.509	1136.55
681.703	1122.99
681.897	1153.8
682.092	1113.69
682.286	1139.27
682.48	1162.52
682.674	1173.37
682.869	1122.22
683.063	1149.15
683.257	1175.69
683.451	1127.83
683.645	1152.44
683.839	1167.94
684.034	1104.2
684.228	1165.23
684.422	1084.82
684.616	1096.45
684.81	1156.9
685.004	1112.92
685.198	1099.94
685.392	1131.71
685.586	1087.92
685.78	1122.02
685.974	1098.39
686.168	1108.46
686.362	1117.76
686.556	1027.86
686.75	986.59
686.944	951.52
687.138	923.63
687.331	834.31
687.525	812.8
687.719	759.13
687.913	825.4
688.107	809.31
688.301	832.56
688.494	851.94
688.688	813.38
688.882	798.85
689.076	794.78
689.269	849.03
689.463	916.65
689.657	845.35
689.85	879.64
690.044	867.83
690.238	865.5
690.431	856.98
690.625	886.04
690.818	896.89
691.012	909.87
691.205	949.59
691.399	885.26
691.593	946.49
691.786	1001.51
691.98	1006.74
692.173	1054.21
692.366	1025.92
692.56	1014.11
692.753	1059.83
692.947	947.46
693.14	1034.84
693.333	1042.78
693.527	996.47
693.72	1048.01
693.914	1001.71
694.107	998.8
694.3	1041.81
694.493	1007.71
694.687	1085.02
694.88	1029.41
695.073	1091.41
695.266	1064.48
695.46	1079.79
695.653	1067
695.846	1110.59
696.039	1034.06
696.232	1069.13
696.425	1119.7
696.618	1136.36
696.812	1114.27
697.005	1185.77
697.198	1239.63
697.391	1182.67
697.584	1237.5
697.777	1262.1
697.97	1242.53
698.163	1218.51
698.356	1224.32
698.549	1286.32
698.742	1266.36
698.935	1225.68
699.127	1231.3
699.32	1213.08
699.513	1227.03
699.706	1270.43
699.899	1270.05
700.092	1242.53
700.285	1273.15
700.477	1217.15
700.67	1312.48
700.863	1306.08
701.056	1386.1
701.248	1314.41
701.441	1339.99
701.634	1310.93
701.826	1413.22
702.019	1322.74
702.212	1396.17
702.404	1311.51
702.597	1331.08
702.79	1344.83
702.982	1376.03
703.175	1424.85
703.367	1448.29
703.56	1453.14
703.752	1512.04
703.945	1492.47
704.137	1491.69
704.33	1513.39
704.522	1525.79
704.715	1516.69
704.907	1563.96
705.1	1597.09
705.292	1560.67
705.484	1593.6
705.677	1597.28
705.869	1645.14
706.061	1638.17
706.254	1687.57
706.446	1617.63
706.638	1644.95
706.831	1727.1
707.023	1665.48
707.215	1795.68
707.407	1764.49
707.599	1735.04
707.792	1799.36
707.984	1771.46
708.176	1815.64
708.368	1770.88
708.56	1851.09
708.752	1793.16
708.944	1796.84
709.136	1849.54
709.329	1821.84
709.521	1931.3
709.713	1888.29
709.905	1896.82
710.097	1972.57
710.289	1904.76
710.481	1926.46
710.672	1955.52
710.864	1972.77
711.056	2009
711.248	2030.12
711.44	2011.71
711.632	2008.03
711.824	2086.3
712.016	2136.68
712.207	2101.61
712.399	2086.11
712.591	2170
712.783	2145.2
712.975	2141.13
713.166	2100.45
713.358	2138.81
713.55	2224.83
713.741	2216.31
713.933	2219.79
714.125	2201.78
714.316	2201
714.508	2259.9
714.7	2225.03
714.891	2239.17
715.083	2281.6
715.274	2259.32
715.466	2269.59
715.657	2356.77
715.849	2223.09
716.04	2263.58
716.232	2186.66
716.423	2274.24
716.615	2157.21
716.806	2136.1
716.998	2077.78
717.189	2003.96
717.381	1935.57
717.572	1894.49
717.763	1939.64
717.955	1904.37
718.146	1909.41
718.337	1830.94
718.528	1792.97
718.72	1702.68
718.911	1814.48
719.102	1756.54
719.293	1823.39
719.485	1817.77
719.676	1758.87
719.867	1754.8
720.058	1744.53
720.249	1739.49
720.44	1792.39
720.632	1836.56
720.823	1884.03
721.014	2028.95
721.205	2033.02
721.396	2117.69
721.587	2226.58
721.778	2286.83
721.969	2319.77
722.16	2381.19
722.351	2371.89
722.542	2517.58
722.733	2527.66
722.924	2400.17
723.115	2447.06
723.305	2438.34
723.496	2466.05
723.687	2343.6
723.878	2380.99
724.069	2351.93
724.26	2370.53
724.45	2323.26
724.641	2334.11
724.832	2361.81
725.023	2326.36
725.213	2340.5
725.404	2303.49
725.595	2322.87
725.785	2308.92
725.976	2399.98
726.167	2400.17
726.357	2367.82
726.548	2491.62
726.739	2407.92
726.929	2451.52
727.12	2515.45
727.31	2568.54
727.501	2466.43
727.691	2481.35
727.882	2435.63
728.072	2567.38
728.263	2565.25
728.453	2635.77
728.644	2594.5
728.834	2564.28
729.024	2555.95
729.215	2547.61
729.405	2655.14
729.596	2668.32
729.786	2699.9
729.976	2700.09
730.167	2702.22
730.357	2694.67
730.547	2692.15
730.737	2757.06
730.928	2828.55
731.118	2851.8
731.308	2759.77
731.498	2850.05
731.688	2937.24
731.879	2904.88
732.069	2933.56
732.259	3026.36
732.449	3040.31
732.639	3129.83
732.829	3150.94
733.019	3175.55
733.209	3262.54
733.399	3254.4
733.589	3397.97
733.779	3416.38
733.969	3410.18
734.159	3522.94
734.349	3528.56
734.539	3563.43
734.729	3584.36
734.919	3623.11
735.109	3671.93
735.299	3573.7
735.488	3663.6
735.678	3595.21
735.868	3642.87
736.058	3641.32
736.248	3597.92
736.437	3611.29
736.627	3623.49
736.817	3712.62
737.007	3666.12
737.196	3767.83
737.386	3720.75
737.576	3681.04
737.765	3806.58
737.955	3701.96
738.144	3862.38
738.334	3850.95
738.524	3735.87
738.713	3814.92
738.903	3794.38
739.092	3853.08
739.282	3872.46
739.471	3830.8
739.661	3861.03
739.85	3916.25
740.04	3911.4
740.229	3946.28
740.419	3982.12
740.608	3974.95
740.797	3984.44
740.987	4072.41
741.176	4015.25
741.365	3998.98
741.555	3972.82
741.744	4095.85
741.933	4056.91
742.123	4030.75
742.312	4118.13
742.501	4140.02
742.69	4139.64
742.88	4068.34
743.069	4223.92
743.258	4119.87
743.447	4212.87
743.636	4165.02
743.825	4194.27
744.014	4173.54
744.204	4240.58
744.393	4147.97
744.582	4244.45
744.771	4302.96
744.96	4223.33
745.149	4216.17
745.338	4172.38
745.527	4262.08
745.716	4225.08
745.905	4240.97
746.094	4323.7
746.283	4316.72
746.471	4235.35
746.66	4354.31
746.849	4339.39
747.038	4313.62
747.227	4247.75
747.416	4326.6
747.604	4244.45
747.793	4237.87
747.982	4308.78
748.171	4303.93
748.359	4309.16
748.548	4278.75
748.737	4281.65
748.926	4299.86
749.114	4190.01
749.303	4305.29
749.491	4221.2
749.68	4143.32
749.869	4274.68
750.057	4228.57
750.246	4229.34
750.434	4203.18
750.623	4239.22
750.811	4238.64
751	4291.53
751.188	4244.45
751.377	4271.19
751.565	4211.9
751.754	4184.58
751.942	4171.41
752.131	4260.34
752.319	4180.32
752.507	4183.23
752.696	4247.36
752.884	4246.58
753.072	4211.52
753.261	4240.58
753.449	4196.4
753.637	4180.52
753.825	4296.57
754.014	4204.15
754.202	4231.67
754.39	4258.02
754.578	4227.21
754.766	4193.11
754.955	4149.52
755.143	4254.53
755.331	4148.16
755.519	4178.19
755.707	4187.68
755.895	4172.19
756.083	4158.62
756.271	4100.3
756.459	4135.18
756.647	4150.87
756.835	4134.6
757.023	4117.35
757.211	4084.42
757.399	4104.37
757.587	4059.04
757.775	4050.71
757.963	4093.91
758.151	4079.38
758.339	3973.21
758.526	4005.17
758.714	4054.39
758.902	3899.78
759.09	3753.5
759.278	3524.68
759.465	3191.63
759.653	2804.91
759.841	2510.61
760.028	2172.13
760.216	1894.88
760.404	1778.24
760.591	1454.3
760.779	1245.63
760.967	1087.73
761.154	911.61
761.342	926.92
761.529	936.41
761.717	975.36
761.905	943.78
762.092	1058.09
762.28	954.43
762.467	960.05
762.655	898.05
762.842	928.08
763.029	948.62
763.217	930.02
763.404	919.75
763.592	962.18
763.779	914.33
763.966	973.61
764.154	1002.67
764.341	1075.72
764.528	1105.75
764.716	1182.67
764.903	1234.98
765.09	1318.09
765.277	1384.94
765.465	1580.62
765.652	1639.52
765.839	1704.23
766.026	1857.29
766.213	1918.71
766.4	2075.26
766.588	2270.17
766.775	2335.27
766.962	2463.53
767.149	2532.7
767.336	2717.92
767.523	2689.63
767.71	2868.85
767.897	2963.59
768.084	3075.77
768.271	3070.54
768.458	3208.1
768.645	3241.62
768.832	3205
769.019	3266.03
769.206	3312.92
769.392	3399.71
769.579	3502.79
769.766	3441.76
769.953	3459
770.14	3524.49
770.327	3504.53
770.513	3581.64
770.7	3583.58
770.887	3565.18
771.073	3559.36
771.26	3608.38
771.447	3567.69
771.634	3544.83
771.82	3662.63
772.007	3552.78
772.193	3621.94
772.38	3658.75
772.567	3613.61
772.753	3604.7
772.94	3617.1
773.126	3665.34
773.313	3663.21
773.499	3620.78
773.686	3664.76
773.872	3617.29
774.059	3582.22
774.245	3548.51
774.432	3581.45
774.618	3503.76
774.804	3603.73
774.991	3539.02
775.177	3586.29
775.363	3543.09
775.55	3559.94
775.736	3503.76
775.922	3576.8
776.109	3550.64
776.295	3533.4
776.481	3613.22
776.667	3571.76
776.853	3551.42
777.04	3505.69
777.226	3527.39
777.412	3596.56
777.598	3490.58
777.784	3501.04
777.97	3468.5
778.156	3469.27
778.342	3433.81
778.528	3494.84
778.715	3363.48
778.901	3460.75
779.087	3465.78
779.272	3412.5
779.458	3386.73
779.644	3407.85
779.83	3390.42
780.016	3488.06
780.202	3407.85
780.388	3391.77
780.574	3298.97
780.76	3349.92
780.946	3372.01
781.131	3402.62
781.317	3343.72
781.503	3345.27
781.689	3353.99
781.874	3467.14
782.06	3333.26
782.246	3345.47
782.432	3310.4
782.617	3344.69
782.803	3376.08
782.989	3235.22
783.174	3263.32
783.36	3234.84
783.545	3257.89
783.731	3272.81
783.916	3164.89
784.102	3260.8
784.288	3202.09
784.473	3249.56
784.659	3228.44
784.844	3273.97
785.029	3215.27
785.215	3153.07
785.4	3162.18
785.586	3252.47
785.771	3146.1
785.956	3212.75
786.142	3125.76
786.327	3155.21
786.512	3148.81
786.698	3125.18
786.883	3046.71
787.068	3098.24
787.254	3112.97
787.439	3024.04
787.624	3095.34
787.809	3023.65
787.994	3022.49
788.18	3124.79
788.365	3017.45
788.55	2999.24
788.735	2987.23
788.92	3001.18
789.105	2986.45
789.29	2988.78
789.475	2942.28
789.66	2949.45
789.845	2909.92
790.03	2908.57
790.215	2956.42
790.4	2958.16
790.585	2963.78
790.77	2948.09
790.955	2876.21
791.14	2888.03
791.325	2941.89
791.51	2819.83
791.695	2901.59
791.879	2878.34
792.064	2830.87
792.249	2932.78
792.434	2873.11
792.618	2878.92
792.803	2937.82
792.988	2868.07
793.173	2859.94
793.357	2936.27
793.542	2842.89
793.727	2892.68
793.911	2926.78
794.096	2883.18
794.281	2897.13
794.465	2977.54
794.65	2883.38
794.834	2970.56
795.019	2987.23
795.203	2990.71
795.388	2973.08
795.572	2943.44
795.757	2949.06
795.941	2971.92
796.126	2931.04
796.31	2867.49
796.494	2919.8
796.679	2863.04
796.863	2868.85
797.048	2961.07
797.232	2966.88
797.416	2943.63
797.601	2942.86
797.785	3034.11
797.969	2959.71
798.153	2947.12
798.338	2996.53
798.522	3018.03
798.706	2985.68
798.89	2986.06
799.074	3104.44
799.258	3038.96
799.443	2995.75
799.627	2962.23
799.811	2983.74
799.995	2985.1
800.179	2916.9
800.363	2901.59
800.547	2996.53
800.731	2972.11
800.915	2934.53
801.099	2924.84
801.283	2907.98
801.467	2930.07
801.651	2943.25
801.835	2953.9
802.019	2933.75
802.202	2987.81
802.386	2888.22
802.57	2902.75
802.754	2938.79
802.938	2880.08
803.121	2937.43
803.305	2980.25
803.489	2960.3
803.673	2947.12
803.856	2998.08
804.04	2930.65
804.224	2964.56
804.407	2901.78
804.591	2904.3
804.775	2906.63
804.958	2956.03
805.142	3049.42
805.326	2918.64
805.509	2932.98
805.693	2960.1
805.876	2966.3
806.06	2973.66
806.243	3009.9
806.427	3009.7
806.61	3012.22
806.794	2989.55
806.977	3009.12
807.16	2974.83
807.344	2977.73
807.527	2958.75
807.71	2945.18
807.894	2957.97
808.077	2977.93
808.26	2931.62
808.444	2863.23
808.627	2937.82
808.81	2873.69
808.993	2829.32
809.177	2866.72
809.36	2892.48
809.543	2893.84
809.726	2766.36
809.909	2793.29
810.092	2759.19
810.276	2797.35
810.459	2754.15
810.642	2738.46
810.825	2656.69
811.008	2729.16
811.191	2628.41
811.374	2654.37
811.557	2676.65
811.74	2690.79
811.923	2569.31
812.106	2578.81
812.289	2533.28
812.472	2550.91
812.654	2532.7
812.837	2500.92
813.02	2464.11
813.203	2405.6
813.386	2281.99
813.569	2280.05
813.751	2204.29
813.934	2242.27
814.117	2219.99
814.3	2161.28
814.482	2108.2
814.665	2103.74
814.848	2039.61
815.03	2008.8
815.213	1969.09
815.396	1980.32
815.578	1942.93
815.761	1876.47
815.943	1953.39
816.126	1879.38
816.309	1848.77
816.491	1769.33
816.674	1707.53
816.856	1758.87
817.039	1785.03
817.221	1835.4
817.403	1804.01
817.586	1795.1
817.768	1818.16
817.951	1735.62
818.133	1697.06
818.315	1710.24
818.498	1773.01
818.68	1836.17
818.862	1831.14
819.045	1877.06
819.227	1853.42
819.409	1805.95
819.591	1801.3
819.774	1793.94
819.956	1795.68
820.138	1881.9
820.32	1894.11
820.502	1948.16
820.684	2040.58
820.866	2026.82
821.048	2073.13
821.231	2072.16
821.413	2028.95
821.595	2021.4
821.777	2067.7
821.959	2076.23
822.141	2111.68
822.323	2011.52
822.505	1922.39
822.686	1810.6
822.868	1737.36
823.05	1625.18
823.232	1601.55
823.414	1536.64
823.596	1636.03
823.778	1618.21
823.96	1622.86
824.141	1660.64
824.323	1704.23
824.505	1756.16
824.687	1808.86
824.868	1909.99
825.05	1964.24
825.232	2007.25
825.413	2057.63
825.595	2039.8
825.777	1977.42
825.958	2036.9
826.14	1960.56
826.321	2019.07
826.503	1998.53
826.685	2032.63
826.866	2029.73
827.048	2041.16
827.229	1922
827.411	1919.1
827.592	1868.72
827.773	1862.14
827.955	1855.36
828.136	1827.84
828.318	1811.38
828.499	1810.6
828.68	1796.84
828.862	1800.91
829.043	1832.3
829.224	1801.69
829.406	1758.29
829.587	1767.2
829.768	1793.16
829.949	1799.94
830.131	1785.61
830.312	1879.77
830.493	1824.94
830.674	1821.45
830.855	1811.18
831.036	1841.6
831.218	1873.57
831.399	1871.63
831.58	1811.76
831.761	1811.57
831.942	1841.79
832.123	1825.52
832.304	1785.41
832.485	1808.86
832.666	1804.79
832.847	1790.84
833.028	1814.09
833.209	1843.73
833.389	1789.29
833.57	1731.55
833.751	1760.61
833.932	1827.84
834.113	1798.01
834.294	1798.78
834.475	1855.36
834.655	1883.64
834.836	1842.76
835.017	1833.46
835.198	1822.03
835.378	1853.22
835.559	1871.05
835.74	1846.25
835.92	1845.47
836.101	1792.19
836.281	1912.7
836.462	1847.41
836.643	1936.73
836.823	1905.54
837.004	1914.64
837.184	1926.27
837.365	1933.44
837.545	1908.64
837.726	1873.96
837.906	1967.34
838.087	1896.43
838.267	1903.41
838.448	1845.09
838.628	1885.39
838.808	1872.41
838.989	1940.6
839.169	1845.47
839.349	1888.1
839.53	1910.19
839.71	1919.29
839.89	1931.89
840.07	1960.75
840.251	1894.11
840.431	1939.25
840.611	1893.52
840.791	1864.27
840.971	1947.19
841.151	1885.39
841.332	1836.17
841.512	1941.77
841.692	1823
841.872	1922
842.052	1860.39
842.232	1924.14
842.412	1827.07
842.592	1863.49
842.772	1884.61
842.952	1880.16
843.132	1813.31
843.312	1829.39
843.492	1821.26
843.672	1862.33
843.851	1818.35
844.031	1840.24
844.211	1839.66
844.391	1804.01
844.571	1870.86
844.751	1851.29
844.93	1872.02
845.11	1799.75
845.29	1835.59
845.47	1868.72
845.649	1848.19
845.829	1893.72
846.009	1826.87
846.188	1823.39
846.368	1852.06
846.547	1828.81
846.727	1887.32
846.907	1777.66
847.086	1836.37
847.266	1846.06
847.445	1800.53
847.625	1837.14
847.804	1767.01
847.984	1812.93
848.163	1821.64
848.343	1759.45
848.522	1795.1
848.701	1781.54
848.881	1746.08
849.06	1772.43
849.239	1782.12
849.419	1768.56
849.598	1701.33
849.777	1726.13
849.957	1671.49
850.136	1627.32
850.315	1631
850.494	1648.24
850.674	1634.29
850.853	1673.04
851.032	1670.91
851.211	1701.91
851.39	1689.7
851.569	1610.65
851.748	1655.6
851.927	1719.15
852.107	1669.16
852.286	1633.32
852.465	1642.43
852.644	1729.03
852.823	1685.63
853.002	1666.65
853.181	1642.23
853.359	1676.53
853.538	1608.91
853.717	1648.82
853.896	1554.66
854.075	1483.94
854.254	1474.84
854.433	1380.48
854.611	1427.37
854.79	1385.32
854.969	1484.91
855.148	1509.71
855.327	1437.83
855.505	1478.71
855.684	1476
855.863	1464.57
856.041	1474.64
856.22	1535.67
856.399	1505.64
856.577	1596.12
856.756	1599.03
856.934	1722.06
857.113	1716.83
857.291	1619.37
857.47	1576.17
857.648	1612.98
857.827	1610.46
858.005	1617.43
858.184	1568.8
858.362	1649.98
858.541	1606.78
858.719	1603.29
858.898	1536.06
859.076	1591.47
859.254	1627.9
859.433	1566.87
859.611	1570.35
859.789	1532.77
859.967	1611.23
860.146	1630.42
860.324	1517.65
860.502	1549.24
860.68	1514.75
860.859	1521.72
861.037	1508.94
861.215	1567.45
861.393	1538.77
861.571	1536.64
861.749	1520.75
861.927	1530.64
862.105	1505.25
862.283	1498.67
862.461	1510.49
862.639	1466.12
862.817	1495.18
862.995	1539.94
863.173	1516.69
863.351	1508.16
863.529	1522.89
863.707	1543.04
863.885	1508.55
864.063	1449.46
864.241	1458.37
864.418	1509.13
864.596	1461.66
864.774	1446.16
864.952	1478.13
865.129	1497.89
865.307	1406.44
865.485	1403.92
865.663	1459.34
865.84	1349.48
866.018	1390.94
866.196	1242.92
866.373	1269.27
866.551	1283.22
866.728	1199.52
866.906	1257.26
867.084	1272.95
867.261	1285.74
867.439	1305.69
867.616	1345.99
867.794	1299.88
867.971	1311.31
868.149	1384.55
868.326	1396.17
868.503	1394.24
868.681	1347.74
868.858	1345.22
869.035	1348.13
869.213	1420.97
869.39	1341.93
869.567	1391.52
869.745	1321.58
869.922	1361.69
870.099	1365.56
870.276	1378.54
870.454	1342.12
870.631	1405.67
870.808	1320.42
870.985	1367.89
871.162	1396.95
871.339	1369.24
871.517	1289.61
871.694	1281.86
871.871	1348.9
872.048	1301.63
872.225	1332.24
872.402	1343.28
872.579	1275.47
872.756	1355.1
872.933	1293.68
873.11	1290.97
873.287	1335.73
873.463	1309.96
873.64	1249.7
873.817	1302.59
873.994	1312.28
874.171	1260.75
874.348	1309.76
874.524	1263.26
874.701	1268.11
874.878	1193.13
875.055	1250.09
875.231	1273.92
875.408	1258.03
875.585	1190.61
875.762	1256.68
875.938	1209.6
876.115	1231.68
876.291	1239.63
876.468	1231.88
876.645	1195.26
876.821	1177.05
876.998	1226.65
877.174	1246.02
877.351	1204.56
877.527	1208.24
877.704	1208.63
877.88	1191.38
878.057	1185.77
878.233	1241.95
878.409	1200.49
878.586	1194.87
878.762	1182.08
878.938	1178.98
879.115	1131.71
879.291	1195.84
879.467	1137.33
879.644	1161.74
879.82	1165.42
879.996	1102.65
880.172	1117.76
880.349	1150.5
880.525	1182.08
880.701	1091.99
880.877	1107.88
881.053	1117.37
881.229	1130.93
881.405	1180.73
881.581	1121.05
881.757	1142.95
881.933	1117.37
882.109	1175.5
882.285	1120.67
882.461	1104.39
882.637	1152.44
882.813	1103.62
882.989	1160.38
883.165	1140.04
883.341	1110.2
883.517	1174.92
883.693	1150.12
883.869	1164.84
884.044	1071.84
884.22	1140.04
884.396	1172.01
884.572	1159.42
884.747	1153.41
884.923	1154.96
885.099	1165.23
885.275	1152.25
885.45	1110.98
885.626	1128.22
885.801	1092.77
885.977	1123.77
886.153	1066.8
886.328	1119.89
886.504	1112.14
886.679	1134.81
886.855	1089.67
887.03	1151.47
887.206	1176.66
887.381	1121.83
887.557	1148.76
887.732	1150.31
887.908	1142.17
888.083	1118.54
888.258	1081.53
888.434	1107.69
888.609	1117.95
888.784	1157.67
888.96	1108.85
889.135	1098.39
889.31	1107.1
889.485	1134.23
889.661	1101.68
889.836	1173.17
890.011	1131.13
890.186	1107.3
890.361	1076.3
890.537	1147.4
890.712	1117.37
890.887	1143.92
891.062	1127.83
891.237	1178.98
891.412	1098.77
891.587	1119.31
891.762	1118.73
891.937	1162.71
892.112	1091.6
892.287	1075.91
892.462	1071.45
892.637	1062.93
892.812	1003.84
892.987	1035.42
893.161	1036.97
893.336	1024.96
893.511	1012.56
893.686	1030.38
893.861	1003.84
894.035	1038.9
894.21	1005.77
894.385	999.57
894.56	1008.49
894.734	943.19
894.909	922.27
895.084	904.25
895.258	935.06
895.433	899.6
895.608	900.57
895.782	846.13
895.957	839.73
896.131	854.07
896.306	781.61
896.48	808.15
896.655	780.25
896.829	754.29
897.004	743.83
897.178	771.92
897.353	717.09
897.527	760.49
897.701	761.46
897.876	714.77
898.05	805.63
898.224	760.88
898.399	774.63
898.573	732.4
898.747	652.96
898.921	666.33
899.096	602.39
899.27	582.05
899.444	589.02
899.618	640.17
899.792	681.25
899.967	652.77
900.141	673.89
900.315	664.2
900.489	632.42
900.663	666.52
900.837	644.24
901.011	565
901.185	684.54
901.359	662.84
901.533	650.83
901.707	643.85
901.881	643.27
902.055	627.77
902.229	632.81
902.403	698.49
902.576	627
902.75	676.6
902.924	740.15
903.098	723.29
903.272	750.61
903.446	802.53
903.619	778.31
903.793	807.57
903.967	805.05
904.14	871.31
904.314	824.23
904.488	817.45
904.661	852.52
904.835	782.58
905.009	874.22
905.182	888.36
905.356	855.23
905.529	824.81
905.703	826.56
905.876	792.07
906.05	759.91
906.223	701.01
906.397	690.35
906.57	657.03
906.744	668.85
906.917	654.12
907.09	644.63
907.264	622.93
907.437	603.94
907.61	581.47
907.784	588.64
907.957	606.65
908.13	580.69
908.304	622.15
908.477	570.81
908.65	606.85
908.823	540.59
908.996	614.21
909.17	556.09
909.343	551.05
909.516	577.4
909.689	583.02
909.862	559.19
910.035	542.72
910.208	518.11
910.381	549.11
910.554	623.7
910.727	553.76
910.9	537.68
911.073	521.99
911.246	617.7
911.419	621.77
911.592	590.19
911.765	559.38
911.938	536.91
912.11	542.14
912.283	574.3
912.456	614.99
912.629	586.7
912.802	538.46
912.974	484.21
913.147	461.34
913.32	404.38
913.493	482.46
913.665	483.82
913.838	464.64
914.01	448.75
914.183	523.73
914.356	490.41
914.528	532.26
914.701	562.29
914.873	527.8
915.046	462.12
915.218	466.77
915.391	391.6
915.563	382.88
915.736	468.71
915.908	491.57
916.081	479.36
916.253	484.01
916.425	474.13
916.598	513.85
916.77	489.05
916.942	470.06
917.115	392.37
917.287	495.64
917.459	459.02
917.632	403.03
917.804	366.02
917.976	430.34
918.148	496.41
918.32	468.13
918.493	473.55
918.665	519.27
918.837	496.99
919.009	561.9
919.181	542.52
919.353	534.39
919.525	521.02
919.697	512.11
919.869	547.37
920.041	567.32
920.213	637.65
920.385	557.44
920.557	527.61
920.729	524.7
920.901	552.21
921.073	533.81
921.244	493.7
921.416	543.69
921.588	531.29
921.76	529.93
921.932	577.21
922.103	529.35
922.275	543.3
922.447	538.84
922.619	466.19
922.79	516.76
922.962	484.59
923.134	504.55
923.305	454.95
923.477	432.48
923.648	433.25
923.82	468.9
923.991	426.08
924.163	406.32
924.335	469.68
924.506	430.93
924.677	475.88
924.849	433.44
925.02	437.32
925.192	441.58
925.363	436.74
925.535	446.81
925.706	423.95
925.877	474.52
926.049	430.93
926.22	460.96
926.391	424.14
926.562	448.75
926.734	433.44
926.905	459.02
927.076	379
927.247	436.35
927.419	375.71
927.59	370.67
927.761	356.53
927.932	346.45
928.103	342.38
928.274	308.48
928.445	309.64
928.616	332.12
928.787	306.93
928.958	326.3
929.129	313.13
929.3	284.45
929.471	261.59
929.642	213.93
929.813	165.3
929.984	270.89
930.155	176.54
930.326	227.3
930.496	209.09
930.667	137.01
930.838	181.57
931.009	131.01
931.18	167.24
931.35	159.68
931.521	141.27
931.692	130.62
931.863	69.2
932.033	148.25
932.204	122.29
932.374	142.63
932.545	79.66
932.716	143.21
932.886	165.3
933.057	60.68
933.227	61.06
933.398	149.02
933.568	79.86
933.739	19.21
933.909	46.53
934.08	85.09
934.25	17.47
934.421	23.09
934.591	73.46
934.761	38.39
934.932	12.63
935.102	86.83
935.272	30.64
935.443	61.64
935.613	37.23
935.783	67.26
935.953	16.69
936.123	184.09
936.294	8.36
936.464	36.26
936.634	15.92
936.804	32
936.974	6.04
937.144	50.99
937.314	35.29
937.484	21.93
937.655	43.82
937.825	113.57
937.995	6.62
938.165	80.63
938.334	56.03
938.504	62.23
938.674	45.95
938.844	72.88
939.014	126.94
939.184	120.16
939.354	135.85
939.524	147.28
939.694	62.61
939.863	94.39
940.033	164.52
940.203	155.81
940.373	120.35
940.542	116.09
940.712	80.44
940.882	122.48
941.051	141.86
941.221	137.4
941.391	141.86
941.56	95.16
941.73	74.43
941.899	195.52
942.069	88.77
942.238	109.69
942.408	127.52
942.577	138.76
942.747	59.13
942.916	78.31
943.086	69.01
943.255	104.66
943.425	96.13
943.594	82.37
943.763	22.89
943.933	59.32
944.102	1
944.271	61.45
944.441	94.97
944.61	67.84
944.779	82.57
944.948	151.74
945.117	56.41
945.287	54.67
945.456	30.26
945.625	52.73
945.794	62.81
945.963	38.98
946.132	93.42
946.301	54.09
946.47	88.77
946.639	9.14
946.808	53.31
946.977	82.96
947.146	115.31
947.315	75.21
947.484	87.02
947.653	42.46
947.822	63.78
947.991	35.68
948.16	169.17
948.329	108.92
948.498	75.98
948.666	90.71
948.835	88.77
949.004	37.04
949.173	27.16
949.341	100.39
949.51	94
949.679	95.36
949.847	96.32
950.016	163.55
950.185	143.79
950.353	52.73
950.522	69.98
950.69	146.7
950.859	62.61
951.028	138.76
951.196	109.31
951.365	49.83
951.533	84.89
951.701	81.41
951.87	88.57
952.038	54.28
952.207	49.44
952.375	153.87
952.543	51.76
952.712	56.61
952.88	52.54
953.048	98.65
953.217	100.97
953.385	66.88
953.553	134.11
953.721	39.94
953.89	57.96
954.058	35.29
954.226	41.88
954.394	125.19
954.562	24.83
954.73	69.78
954.898	69.39
955.067	119.57
955.235	55.64
955.403	57.19
955.571	157.94
955.739	72.69
955.907	47.31
956.075	63.19
956.243	59.71
956.41	74.04
956.578	27.93
956.746	68.04
956.914	49.24
957.082	107.56
957.25	113.57
957.418	76.76
957.585	94
957.753	120.35
957.921	69.98
958.089	87.22
958.256	101.36
958.424	79.27
958.592	76.56
958.759	88.38
958.927	84.89
959.095	50.79
959.262	94.77
959.43	63
959.597	29.87
959.765	94.58
959.932	60.48
960.1	107.17
960.267	77.34
960.435	78.31
960.602	112.21
960.77	57.77
960.937	39.56
961.104	99.81
961.272	61.06
961.439	39.94
961.606	70.17
961.774	106.59
961.941	89.35
962.108	89.35
962.275	101.94
962.443	124.81
962.61	92.64
962.777	147.67
962.944	117.06
963.111	108.14
963.278	100.59
963.446	116.67
963.613	85.67
963.78	124.81
963.947	122.87
964.114	100.59
964.281	164.91
964.448	131.01
964.615	90.12
964.782	99.04
964.949	125.97
965.116	133.91
965.282	139.53
965.449	75.59
965.616	88.38
965.783	100.39
965.95	111.44
966.117	69.01
966.283	89.93
966.45	149.02
966.617	119.57
966.784	137.4
966.95	150.38
967.117	116.09
967.284	77.72
967.45	116.67
967.617	162.97
967.784	141.86
967.95	182.15
968.117	149.8
968.283	159.87
968.45	220.71
968.616	137.79
968.783	159.1
968.949	140.31
969.116	176.54
969.282	123.64
969.449	148.25
969.615	127.91
969.781	90.12
969.948	89.74
970.114	76.56
970.28	169.75
970.447	146.51
970.613	165.49
970.779	109.89
970.945	167.62
971.112	134.3
971.278	137.01
971.444	130.23
971.61	157.55
971.776	128.1
971.942	127.13
972.108	157.36
972.275	126.55
972.441	138.17
972.607	198.04
972.773	118.02
972.939	138.37
973.105	117.83
973.271	76.76
973.437	110.86
973.602	97.49
973.768	139.92
973.934	109.31
974.1	109.69
974.266	60.09
974.432	152.32
974.598	103.11
974.763	142.24
974.929	95.55
975.095	161.62
975.261	70.75
975.426	77.72
975.592	100.97
975.758	168.2
975.923	61.45
976.089	89.16
976.255	120.74
976.42	113.37
976.586	135.27
976.751	121.9
976.917	161.62
977.082	128.87
977.248	65.13
977.413	66.49
977.579	79.66
977.744	119.77
977.91	90.12
978.075	94.39
978.24	135.46
978.406	125.77
978.571	81.79
978.736	95.94
978.902	164.33
979.067	92.45
979.232	62.42
979.397	119.38
979.563	140.89
979.728	90.71
979.893	87.22
980.058	101.36
980.223	137.4
980.388	130.81
980.554	108.14
980.719	104.27
980.884	136.43
981.049	168.98
981.214	87.02
981.379	116.47
981.544	98.26
981.709	117.64
981.874	78.69
982.039	92.45
982.204	148.44
982.368	96.71
982.533	74.04
982.698	145.34
982.863	109.31
983.028	87.02
983.193	138.56
983.357	120.35
983.522	121.51
983.687	99.04
983.852	105.04
984.016	99.23
984.181	108.14
984.346	111.63
984.51	122.87
984.675	121.12
984.839	114.34
985.004	112.41
985.168	149.99
985.333	131.97
985.498	105.43
985.662	141.27
985.827	127.91
985.991	112.41
986.155	103.49
986.32	117.64
986.484	158.91
986.649	101.17
986.813	77.14
986.977	86.83
987.142	119.57
987.306	60.68
987.47	91.09
987.634	107.76
987.799	107.76
987.963	135.07
988.127	125.39
988.291	172.08
988.455	104.07
988.62	91.67
988.784	133.33
988.948	122.09
989.112	80.05
989.276	104.66
989.44	115.89
989.604	76.95
989.768	78.31
989.932	163.94
990.096	64.94
990.26	72.69
990.424	58.54
990.588	90.12
990.752	153.48
990.915	119.38
991.079	95.55
991.243	65.13
991.407	91.48
991.571	93.03
991.734	103.88
991.898	101.36
992.062	171.89
992.226	61.06
992.389	68.81
992.553	25.22
992.717	96.71
992.88	63.39
993.044	92.45
993.207	62.61
993.371	119.19
993.535	98.26
993.698	105.62
993.862	113.18
994.025	136.24
994.189	89.74
994.352	110.08
994.515	107.95
994.679	127.71
994.842	67.26
995.006	122.29
995.169	48.08
995.332	75.01
995.496	89.93
995.659	62.42
995.822	79.47
995.985	74.62
996.149	136.82
996.312	62.61
996.475	137.79
996.638	89.93
996.801	126.94
996.964	131.97
997.128	52.54
997.291	71.14
997.454	105.82
997.617	33.16
997.78	107.17
997.943	95.55
998.106	112.6
998.269	111.44
998.432	70.56
998.595	106.01
998.758	18.24
998.92	33.94
999.083	53.12
999.246	69.98
999.409	46.53
999.572	21.73
999.735	63.39
999.897	103.49
1000.06	56.8
1000.223	35.88
1000.386	97.1
1000.548	75.01
1000.711	87.22
1000.874	81.21
1001.036	51.57
1001.199	92.45
1001.361	45.95
1001.524	59.71
1001.687	75.01
1001.849	44.01
1002.012	89.16
1002.174	82.37
1002.337	84.12
1002.499	73.66
1002.661	96.13
1002.824	43.82
1002.986	30.64
1003.149	62.23
1003.311	57.19
1003.473	103.3
1003.636	36.46
1003.798	91.29
1003.96	61.64
1004.123	88.57
1004.285	55.06
1004.447	90.51
1004.609	51.57
1004.771	119.77
1004.933	43.63
1005.096	61.84
1005.258	8.75
1005.42	41.3
1005.582	82.76
1005.744	50.99
1005.906	25.99
1006.068	64.94
1006.23	42.27
1006.392	9.91
1006.554	37.81
1006.716	89.93
1006.878	73.27
1007.04	33.74
1007.202	49.24
1007.363	71.91
1007.525	68.23
1007.687	73.27
1007.849	105.82
1008.011	12.82
1008.172	34.52
1008.334	71.91
1008.496	62.61
1008.658	-3.46
1008.819	10.88
1008.981	29.29
1009.143	46.73
1009.304	33.16
1009.466	58.54
1009.627	93.22
1009.789	140.69
1009.95	84.12
1010.112	32
1010.273	49.83
1010.435	14.76
1010.596	51.96
1010.758	33.16
1010.919	34.13
1011.081	15.34
1011.242	40.53
1011.403	80.63
1011.565	39.75
1011.726	64.94
1011.887	19.79
1012.049	33.74
1012.21	51.76
1012.371	91.09
1012.532	-18.37
1012.693	47.69
1012.855	15.14
1013.016	44.59
1013.177	80.44
1013.338	65.13
1013.499	101.36
1013.66	44.01
1013.821	43.82
1013.982	52.54
1014.143	74.04
1014.304	26.58
1014.465	67.65
1014.626	32.19
1014.787	48.66
1014.948	114.54
1015.109	-34.65
1015.27	96.32
1015.431	21.15
1015.592	32.97
1015.752	97.87
1015.913	45.95
1016.074	56.22
1016.235	31.81
1016.395	34.33
1016.556	24.44
1016.717	24.06
1016.877	89.74
1017.038	17.86
1017.199	24.64
1017.359	36.65
1017.52	47.89
1017.681	30.26
1017.841	35.68
1018.002	35.49
1018.162	23.86
1018.323	78.89
1018.483	33.94
1018.644	31.81
1018.804	3.71
1018.964	13.79
1019.125	3.52
1019.285	49.83
1019.446	-12.95
1019.606	-18.76
1019.766	-16.63
1019.926	38.98
1020.087	46.73
1020.247	-12.17
1020.407	30.45
1020.567	29.29
1020.728	15.53
1020.888	8.36
1021.048	12.43
1021.208	34.13
1021.368	13.21
1021.528	47.11
1021.688	105.04
1021.848	50.79
1022.008	48.66
1022.168	14.76
1022.328	59.9
1022.488	39.75
1022.648	30.84
1022.808	21.93
1022.968	32.78
1023.128	1.97
1023.288	5.84
1023.448	33.55
1023.608	66.49
1023.767	36.07
1023.927	18.05
1024.087	-5.59
1024.247	-10.04
1024.406	8.75
1024.566	-23.99
1024.726	-2.87
1024.885	37.23
1025.045	12.82
1025.205	33.16
1025.364	16.11
1025.524	37.43
1025.683	25.41
1025.843	36.07
1026.003	14.56
1026.162	86.06
1026.321	66.49
1026.481	61.84
1026.64	17.86
1026.8	42.66
1026.959	51.38
1027.119	45.37
1027.278	11.08
1027.437	22.7
1027.597	40.91
1027.756	35.1
1027.915	39.36
1028.074	47.69
1028.234	3.13
1028.393	28.32
1028.552	13.4
1028.711	-45.11
1028.87	54.28
1029.03	-21.28
1029.189	4.1
1029.348	-23.6
1029.507	-20.7
1029.666	-6.17
1029.825	-17.79
1029.984	-9.46
1030.143	14.95
1030.302	-1.91
1030.461	-6.75
1030.62	17.28
1030.779	29.87
1030.938	-3.26
1031.097	-18.95
1031.255	49.44
1031.414	54.86
1031.573	46.53
1031.732	-9.27
1031.891	-4.62
1032.049	50.41
1032.208	48.86
1032.367	-5.97
1032.525	3.13
1032.684	-13.72
1032.843	20.76
1033.001	-51.5
1033.16	153.87
1033.319	74.62
1033.477	47.89
1033.636	-10.43
1033.794	-30.77
1033.953	33.16
1034.111	20.76
1034.27	9.91
1034.428	44.01
1034.587	-1.52
1034.745	41.11
1034.903	9.53
1035.062	1.39
1035.22	-25.54
1035.378	51.57
1035.537	-8.3
1035.695	26.58
1035.853	-7.72
1036.011	50.99
1036.17	46.14
1036.328	-14.11
1036.486	10.69
1036.644	22.89
1036.802	-78.05
1036.96	-6.94
1037.119	-7.91
1037.277	-8.3
1037.435	-10.62
1037.593	-15.85
1037.751	6.04
1037.909	37.81
1038.067	37.81
