Data from oakcork_FLMT105791__21__17-26-56-066.txt Node

Date: Mon Mar 20 17:26:56 GMT 2023
User: antho
Spectrometer: FLMT10579
Trigger mode: 0
Integration Time (sec): 1.000000E-1
Scans to average: 10
Electric dark correction enabled: true
Nonlinearity correction enabled: false
Boxcar width: 0
XAxis mode: Wavelengths
Number of Pixels in Spectrum: 3648
>>>>>Begin Spectral Data<<<<<
345.248	-149.98
345.464	-149.98
345.681	-149.98
345.898	-166.64
346.114	-169.74
346.331	-37.02
346.548	10.45
346.764	9.86
346.981	-5.83
347.197	-17.07
347.414	7.15
347.631	-35.47
347.847	46.48
348.064	14.71
348.28	25.75
348.497	-40.7
348.713	21.68
348.93	35.05
349.146	34.47
349.363	-26.56
349.579	-0.6
349.796	11.8
350.012	-19.78
350.229	26.91
350.445	-6.41
350.661	-16.48
350.878	18.97
351.094	19.16
351.311	31.37
351.527	0.18
351.743	2.5
351.96	22.46
352.176	15.87
352.392	14.9
352.609	28.66
352.825	-18.03
353.041	17.03
353.257	15.87
353.474	6.18
353.69	36.41
353.906	27.88
354.122	19.55
354.339	41.83
354.555	4.83
354.771	18.39
354.987	60.82
355.203	71.67
355.42	26.53
355.636	-11.45
355.852	-5.44
356.068	12.96
356.284	-35.86
356.5	55.01
356.716	43
356.932	11.8
357.148	63.92
357.364	26.72
357.58	49
357.796	69.15
358.012	34.86
358.228	20.71
358.444	-64.34
358.66	71.28
358.876	47.84
359.092	-5.83
359.308	15.29
359.524	39.51
359.74	16.26
359.956	4.44
360.172	30.6
360.388	44.74
360.604	6.96
360.819	91.05
361.035	31.76
361.251	39.9
361.467	-27.72
361.683	62.37
361.898	56.56
362.114	41.06
362.33	16.26
362.546	61.4
362.762	27.5
362.977	26.33
363.193	-6.02
363.409	90.27
363.624	-4.67
363.84	-4.67
364.056	12.58
364.271	26.91
364.487	13.55
364.703	13.16
364.918	-14.74
365.134	22.65
365.35	18.78
365.565	105.38
365.781	12.19
365.996	55.01
366.212	57.53
366.427	30.21
366.643	6.57
366.858	-0.98
367.074	-0.02
367.289	82.33
367.505	106.16
367.72	-15.9
367.936	24.4
368.151	55.4
368.367	55.4
368.582	8.7
368.798	18.78
369.013	83.88
369.228	43
369.444	19.94
369.659	84.26
369.874	48.61
370.09	59.08
370.305	-34.89
370.52	15.48
370.736	69.93
370.951	3.28
371.166	56.36
371.381	73.61
371.597	63.15
371.812	-5.05
372.027	10.25
372.242	4.83
372.458	107.32
372.673	14.13
372.888	24.01
373.103	47.65
373.318	101.7
373.533	40.86
373.749	34.66
373.964	-40.51
374.179	59.66
374.394	-2.34
374.609	77.68
374.824	-33.34
375.039	49
375.254	15.29
375.469	80.2
375.684	42.03
375.899	86.98
376.114	61.79
376.329	18.78
376.544	56.36
376.759	39.7
376.974	41.25
377.189	21.68
377.404	29.05
377.619	69.15
377.834	-29.08
378.049	-17.84
378.264	23.81
378.478	58.69
378.693	10.83
378.908	90.08
379.123	38.54
379.338	54.23
379.553	51.13
379.767	58.3
379.982	66.63
380.197	55.4
380.412	19.36
380.626	42.61
380.841	104.8
381.056	42.61
381.271	101.12
381.485	12.38
381.7	4.63
381.915	57.91
382.129	42.03
382.344	41.45
382.559	30.6
382.773	77.87
382.988	-24.43
383.202	62.18
383.417	11.61
383.632	108.87
383.846	29.43
384.061	65.47
384.275	31.56
384.49	28.27
384.704	85.23
384.919	47.26
385.133	30.79
385.348	84.85
385.562	16.84
385.777	80.97
385.991	42.22
386.206	36.21
386.42	3.47
386.634	58.3
386.849	51.33
387.063	47.65
387.277	5.6
387.492	38.93
387.706	21.3
387.92	18
388.135	88.72
388.349	43.38
388.563	55.59
388.778	55.01
388.992	78.45
389.206	86.78
389.42	86.4
389.635	35.44
389.849	64.89
390.063	98.79
390.277	61.4
390.491	86.98
390.706	88.72
390.92	70.51
391.134	38.35
391.348	74.96
391.562	15.87
391.776	36.41
391.99	19.75
392.205	89.88
392.419	24.01
392.633	60.05
392.847	100.93
393.061	27.88
393.275	117.78
393.489	48.03
393.703	46.68
393.917	86.2
394.131	24.01
394.345	86.01
394.559	79.23
394.773	56.17
394.986	53.85
395.2	65.08
395.414	109.64
395.628	15.29
395.842	62.56
396.056	66.05
396.27	-14.35
396.484	55.78
396.697	64.5
396.911	97.24
397.125	70.12
397.339	87.56
397.553	62.95
397.766	106.16
397.98	110.81
398.194	131.93
398.408	55.2
398.621	108.29
398.835	103.83
399.049	124.56
399.262	121.66
399.476	117.01
399.69	121.27
399.903	176.49
400.117	88.72
400.331	115.26
400.544	87.75
400.758	205.55
400.971	96.28
401.185	117.59
401.398	74.77
401.612	162.73
401.826	105.77
402.039	103.64
402.253	97.44
402.466	121.27
402.68	89.5
402.893	108.48
403.106	117.98
403.32	114.88
403.533	126.11
403.747	113.13
403.96	105.19
404.174	141.03
404.387	80.78
404.6	104.41
404.814	133.28
405.027	119.53
405.24	104.99
405.454	123.4
405.667	136.77
405.88	77.48
406.094	100.15
406.307	146.26
406.52	129.6
406.733	87.75
406.947	44.74
407.16	184.04
407.373	179.2
407.586	74.19
407.799	77.68
408.012	154.01
408.226	104.03
408.439	148.98
408.652	98.79
408.865	118.36
409.078	158.66
409.291	132.51
409.504	95.69
409.717	158.08
409.93	145.1
410.143	135.03
410.357	61.01
410.57	74.77
410.783	101.89
410.996	126.89
411.209	106.74
411.421	159.63
411.634	130.96
411.847	106.35
412.06	121.27
412.273	137.54
412.486	119.14
412.699	217.37
412.912	146.84
413.125	133.28
413.338	119.14
413.55	142.19
413.763	162.73
413.976	165.83
414.189	129.6
414.402	101.31
414.615	174.16
414.827	101.7
415.04	166.8
415.253	134.64
415.466	158.66
415.678	188.69
415.891	145.88
416.104	169.32
416.316	164.48
416.529	105.38
416.742	148.01
416.954	162.73
417.167	122.04
417.38	144.52
417.592	172.03
417.805	109.45
418.017	88.91
418.23	171.64
418.442	150.33
418.655	120.69
418.868	172.23
419.08	179.2
419.293	197.41
419.505	179.39
419.718	152.27
419.93	199.54
420.142	145.29
420.355	194.7
420.567	210.39
420.78	160.99
420.992	145.49
421.205	201.67
421.417	115.46
421.629	154.79
421.842	142.19
422.054	114.68
422.266	169.32
422.479	193.92
422.691	150.14
422.903	184.04
423.115	137.74
423.328	147.23
423.54	169.9
423.752	158.66
423.964	110.81
424.177	171.84
424.389	167.19
424.601	234.22
424.813	170.87
425.025	183.85
425.238	209.23
425.45	138.9
425.662	154.59
425.874	433.78
426.086	198.96
426.298	210.78
426.51	160.6
426.722	173.58
426.934	152.08
427.146	190.82
427.358	115.65
427.57	215.04
427.782	130.18
427.994	165.25
428.206	150.14
428.418	137.16
428.63	192.18
428.842	231.32
429.054	190.24
429.266	204.39
429.478	144.33
429.69	158.47
429.902	131.15
430.114	199.74
430.325	176.49
430.537	131.15
430.749	141.03
430.961	95.69
431.173	162.73
431.384	161.38
431.596	88.91
431.808	137.54
432.02	200.51
432.231	224.54
432.443	222.21
432.655	188.69
432.867	160.21
433.078	206.13
433.29	280.34
433.502	241.97
433.713	251.08
433.925	197.41
434.136	236.55
434.348	143.36
434.56	134.06
434.771	276.65
434.983	154.4
435.194	184.43
435.406	185.4
435.617	266.77
435.829	269.1
436.04	250.11
436.252	267.94
436.463	259.22
436.675	249.53
436.886	253.79
437.098	229.19
437.309	261.74
437.521	228.99
437.732	270.65
437.943	228.41
438.155	269.29
438.366	184.43
438.578	272.39
438.789	223.18
439	241.78
439.211	212.52
439.423	254.76
439.634	248.95
439.845	259.22
440.057	246.62
440.268	260.38
440.479	238.49
440.69	243.33
440.902	227.06
441.113	240.42
441.324	220.66
441.535	281.89
441.746	308.24
441.957	197.41
442.168	256.51
442.38	290.6
442.591	296.42
442.802	244.11
443.013	247.79
443.224	301.65
443.435	259.99
443.646	243.72
443.857	267.94
444.068	247.4
444.279	245.07
444.49	333.81
444.701	252.24
444.912	391.16
445.123	317.54
445.334	289.25
445.545	300.29
445.756	283.24
445.967	235.39
446.178	291.19
446.388	307.65
446.599	311.14
446.81	298.94
447.021	243.14
447.232	313.66
447.443	359.58
447.653	256.7
447.864	334.2
448.075	287.5
448.286	295.84
448.496	303.78
448.707	347.37
448.918	253.6
449.129	406.08
449.339	284.99
449.55	307.27
449.761	278.2
449.971	345.82
450.182	297.77
450.393	315.99
450.603	275.88
450.814	366.36
451.024	325.87
451.235	356.67
451.446	344.08
451.656	348.15
451.867	291.19
452.077	313.66
452.288	377.4
452.498	394.45
452.709	301.07
452.919	317.73
453.13	278.01
453.34	339.24
453.55	257.28
453.761	342.92
453.971	339.43
454.182	352.02
454.392	329.74
454.602	389.42
454.813	320.64
455.023	346.21
455.233	274.52
455.444	297.19
455.654	278.4
455.864	322.57
456.075	308.62
456.285	288.47
456.495	311.92
456.705	357.45
456.916	399.68
457.126	386.9
457.336	343.89
457.546	273.17
457.756	293.12
457.967	372.95
458.177	334.78
458.387	326.84
458.597	283.05
458.807	308.24
459.017	320.44
459.227	328.19
459.437	317.73
459.647	375.27
459.857	350.86
460.068	322.57
460.278	371.98
460.488	357.25
460.698	436.11
460.908	352.22
461.117	326.84
461.327	338.65
461.537	360.35
461.747	334.2
461.957	337.1
462.167	436.5
462.377	422.74
462.587	354.93
462.797	393.29
463.007	351.83
463.216	404.92
463.426	410.53
463.636	406.66
463.846	346.99
464.056	344.27
464.265	393.1
464.475	345.44
464.685	353.57
464.895	373.33
465.104	355.51
465.314	377.4
465.524	368.49
465.733	351.25
465.943	419.06
466.153	444.83
466.362	402.98
466.572	378.18
466.782	384.18
466.991	395.81
467.201	447.54
467.41	348.92
467.62	401.82
467.829	354.54
468.039	409.76
468.249	394.65
468.458	410.92
468.668	424.68
468.877	400.27
469.086	437.85
469.296	457.23
469.505	398.72
469.715	480.09
469.924	447.35
470.134	490.36
470.343	474.28
470.552	419.83
470.762	423.52
470.971	392.32
471.18	436.88
471.39	395.03
471.599	389.61
471.808	435.53
472.018	394.84
472.227	471.37
472.436	462.65
472.645	428.17
472.855	441.15
473.064	504.7
473.273	446.96
473.482	441.15
473.691	528.72
473.901	476.21
474.11	443.67
474.319	534.73
474.528	465.56
474.737	517.87
474.946	502.56
475.155	491.71
475.364	545.38
475.573	495.01
475.783	501.01
475.992	517.87
476.201	545.58
476.41	492.68
476.619	480.67
476.828	486.68
477.037	477.38
477.245	499.08
477.454	533.18
477.663	494.62
477.872	501.21
478.081	591.3
478.29	500.24
478.499	606.99
478.708	524.85
478.917	608.54
479.125	557.78
479.334	537.24
479.543	535.89
479.752	556.62
479.961	544.41
480.169	609.71
480.378	545.58
480.587	662.21
480.796	601.57
481.004	549.64
481.213	619.59
481.422	563.4
481.63	594.21
481.839	649.62
482.048	629.27
482.256	634.12
482.465	620.17
482.674	619.59
482.882	633.73
483.091	683.52
483.299	601.57
483.508	651.56
483.716	647.1
483.925	650.2
484.134	605.06
484.342	618.04
484.551	655.82
484.759	642.64
484.967	662.02
485.176	666.86
485.384	648.65
485.593	704.64
485.801	655.62
486.01	629.08
486.218	596.34
486.426	551.58
486.635	593.24
486.843	573.09
487.051	599.83
487.26	613.78
487.468	625.4
487.676	670.16
487.885	586.07
488.093	647.49
488.301	680.42
488.509	654.27
488.717	735.45
488.926	714.14
489.134	662.41
489.342	687.79
489.55	643.81
489.758	697.67
489.967	694.57
490.175	788.92
490.383	718.01
490.591	739.13
490.799	697.67
491.007	763.93
491.215	725.57
491.423	721.11
491.631	735.25
491.839	708.71
492.047	759.09
492.255	686.04
492.463	650.39
492.671	704.06
492.879	751.92
493.087	700.96
493.295	748.62
493.503	774.2
493.711	771.87
493.919	798.22
494.127	763.15
494.334	826.12
494.542	742.23
494.75	773.62
494.958	766.25
495.166	798.22
495.374	774.78
495.581	776.33
495.789	778.46
495.997	848.02
496.205	745.14
496.412	763.15
496.62	801.32
496.828	788.92
497.035	784.85
497.243	859.45
497.451	811.01
497.658	814.69
497.866	816.05
498.074	872.82
498.281	787.76
498.489	861.38
498.696	820.12
498.904	776.52
499.112	776.72
499.319	866.03
499.527	779.82
499.734	852.28
499.942	743.59
500.149	789.7
500.357	841.62
500.564	782.72
500.771	833.68
500.979	756.95
501.186	779.04
501.394	813.33
501.601	776.52
501.808	811.4
502.016	791.64
502.223	795.12
502.43	830
502.638	774.39
502.845	770.52
503.052	871.85
503.26	798.61
503.467	861.77
503.674	825.93
503.881	829.42
504.089	906.91
504.296	857.51
504.503	771.49
504.71	830.58
504.917	782.14
505.125	830
505.332	845.3
505.539	865.84
505.746	886.76
505.953	883.28
506.16	880.57
506.367	900.33
506.574	910.6
506.781	929.2
506.988	840.85
507.195	880.57
507.402	869.33
507.609	909.05
507.816	846.85
508.023	836.78
508.23	843.37
508.437	816.24
508.644	887.15
508.851	912.73
509.058	898
509.265	877.66
509.472	896.45
509.679	956.71
509.885	875.33
510.092	879.21
510.299	897.23
510.506	907.5
510.713	889.28
510.92	879.21
511.126	908.46
511.333	958.06
511.54	940.63
511.746	953.8
511.953	948.76
512.16	990.03
512.367	921.06
512.573	928.42
512.78	904.98
512.987	910.21
513.193	923.77
513.4	858.67
513.606	905.17
513.813	917.38
514.02	905.17
514.226	989.45
514.433	991.97
514.639	929.39
514.846	913.5
515.052	893.55
515.259	949.73
515.465	945.28
515.672	925.9
515.878	1025.1
516.085	929.39
516.291	972.98
516.497	904.01
516.704	908.46
516.91	890.25
517.117	835.23
517.323	810.43
517.529	841.62
517.736	869.52
517.942	889.86
518.148	870.3
518.354	883.66
518.561	914.08
518.767	931.33
518.973	973.56
519.179	930.55
519.386	939.27
519.592	905.56
519.798	898.78
520.004	964.46
520.21	944.11
520.417	991.39
520.623	1026.84
520.829	1009.6
521.035	1009.21
521.241	997.39
521.447	1014.25
521.653	1130.5
521.859	976.08
522.065	1044.86
522.271	1118.87
522.477	1076.06
522.683	1117.91
522.889	1070.82
523.095	1046.8
523.301	1042.93
523.507	1014.83
523.713	1070.82
523.919	1065.4
524.125	1114.61
524.331	1055.13
524.537	1159.75
524.742	1142.12
524.948	1149.68
525.154	1132.63
525.36	1222.14
525.566	1102.41
525.772	1176.42
525.977	1065.21
526.183	1117.13
526.389	1128.37
526.595	1086.52
526.8	1057.46
527.006	1011.34
527.212	1023.55
527.417	997.01
527.623	1000.3
527.829	1082.84
528.034	1099.5
528.24	1089.23
528.446	1081.09
528.651	1163.44
528.857	1133.6
529.062	1201.8
529.268	1102.02
529.473	1184.17
529.679	1171.38
529.884	1254.88
530.09	1208.58
530.295	1242.29
530.501	1223.69
530.706	1200.05
530.912	1160.53
531.117	1209.74
531.323	1195.02
531.528	1228.34
531.733	1228.54
531.939	1195.02
532.144	1242.1
532.35	1230.67
532.555	1243.26
532.76	1220.79
532.966	1236.28
533.171	1220.98
533.376	1175.45
533.581	1152.97
533.787	1182.81
533.992	1247.13
534.197	1279.68
534.402	1237.06
534.607	1220.2
534.813	1325.99
535.018	1217.3
535.223	1260.12
535.428	1266.7
535.633	1294.6
535.838	1256.24
536.043	1287.63
536.249	1315.72
536.454	1246.17
536.659	1312.23
536.864	1250.62
537.069	1241.71
537.274	1291.12
537.479	1278.91
537.684	1271.16
537.889	1250.82
538.094	1358.15
538.299	1293.25
538.504	1303.52
538.708	1348.85
538.913	1303.9
539.118	1268.45
539.323	1304.87
539.528	1242.29
539.733	1260.89
539.938	1310.1
540.142	1306.42
540.347	1284.92
540.552	1269.8
540.757	1262.63
540.962	1288.79
541.166	1237.83
541.371	1233.77
541.576	1269.22
541.781	1165.37
541.985	1312.43
542.19	1276
542.395	1344.2
542.599	1351.76
542.804	1281.82
543.008	1368.23
543.213	1261.28
543.418	1264.18
543.622	1340.91
543.827	1247.13
544.031	1371.71
544.236	1382.37
544.44	1338.58
544.645	1386.25
544.849	1306.62
545.054	1351.95
545.258	1432.16
545.463	1387.99
545.667	1309.13
545.872	1376.95
546.076	1353.7
546.281	1363.19
546.485	1321.34
546.689	1368.42
546.894	1388.18
547.098	1354.86
547.302	1331.8
547.507	1315.14
547.711	1333.16
547.915	1423.83
548.119	1295.18
548.324	1343.23
548.528	1414.53
548.732	1343.43
548.936	1362.03
549.141	1366.48
549.345	1359.51
549.549	1344.4
549.753	1332.77
549.957	1440.69
550.161	1442.43
550.366	1364.55
550.57	1314.17
550.774	1359.51
550.978	1362.61
551.182	1422.09
551.386	1350.6
551.59	1352.53
551.794	1337.03
551.998	1414.14
552.202	1370.16
552.406	1325.41
552.61	1385.08
552.814	1386.05
553.018	1436.43
553.222	1381.6
553.426	1380.05
553.63	1444.56
553.833	1362.61
554.037	1288.6
554.241	1421.31
554.445	1383.15
554.649	1353.11
554.853	1335.68
555.056	1400.97
555.26	1397.68
555.464	1363.19
555.668	1388.96
555.871	1392.25
556.075	1408.14
556.279	1335.48
556.483	1312.43
556.686	1384.31
556.89	1400.39
557.094	1363.96
557.297	1275.23
557.501	1405.62
557.704	1300.42
557.908	1363
558.112	1308.17
558.315	1394.19
558.519	1343.81
558.722	1318.63
558.926	1288.79
559.129	1239
559.333	1218.65
559.536	1259.73
559.74	1242.29
559.943	1251.59
560.147	1220.59
560.35	1274.07
560.553	1267.48
560.757	1206.64
560.96	1348.85
561.164	1258.37
561.367	1323.47
561.57	1266.7
561.774	1292.08
561.977	1259.15
562.18	1252.75
562.384	1359.12
562.587	1286.66
562.79	1263.22
562.993	1252.95
563.197	1299.25
563.4	1331.03
563.603	1308.75
563.806	1363.96
564.009	1239.19
564.212	1285.11
564.416	1219.82
564.619	1281.43
564.822	1217.49
565.025	1295.77
565.228	1267.09
565.431	1248.88
565.634	1191.72
565.837	1233.96
566.04	1188.04
566.243	1215.17
566.446	1138.44
566.649	1225.63
566.852	1153.55
567.055	1206.64
567.258	1211.29
567.461	1295.38
567.664	1276.2
567.867	1175.25
568.07	1223.69
568.273	1214
568.475	1241.9
568.678	1183.39
568.881	1193.85
569.084	1171.38
569.287	1097.17
569.489	1109.38
569.692	1153.94
569.895	1191.53
570.098	1115.77
570.3	1092.14
570.503	1063.27
570.706	1097.95
570.909	1099.89
571.111	1058.62
571.314	1058.23
571.516	1099.69
571.719	1094.66
571.922	1067.92
572.124	1089.81
572.327	1109.77
572.529	1062.88
572.732	1069.66
572.935	1115.97
573.137	1130.69
573.34	1072.18
573.542	1101.24
573.745	1119.65
573.947	1108.61
574.15	1062.11
574.352	1051.84
574.554	1135.92
574.757	1052.61
574.959	1052.81
575.162	1055.13
575.364	1029.56
575.566	1138.83
575.769	1009.99
575.971	1060.36
576.173	957.87
576.376	1032.66
576.578	1055.71
576.78	1101.63
576.982	967.95
577.185	1041.57
577.387	1021.42
577.589	995.84
577.791	1044.09
577.993	1041.96
578.196	1035.56
578.398	1063.27
578.6	1088.84
578.802	951.67
579.004	968.14
579.206	990.23
579.408	1001.46
579.61	994.49
579.812	1064.62
580.014	970.66
580.216	998.36
580.418	1026.65
580.62	970.27
580.822	960.39
581.024	1019.48
581.226	1060.17
581.428	981.89
581.63	1071.21
581.832	1003.21
582.034	1060.56
582.236	1008.44
582.438	1060.56
582.64	1063.46
582.841	1060.75
583.043	1111.32
583.245	1072.37
583.447	1037.5
583.649	1021.61
583.85	1013.09
584.052	1063.27
584.254	988.09
584.456	1021.61
584.657	1016.77
584.859	1013.28
585.061	1007.47
585.262	956.32
585.464	960.39
585.666	1057.84
585.867	985.58
586.069	1077.02
586.27	1004.37
586.472	995.46
586.674	984.99
586.875	1007.08
587.077	965.81
587.278	987.32
587.48	967.95
587.681	1095.04
587.883	996.23
588.084	936.75
588.285	931.52
588.487	966.98
588.688	954.96
588.89	907.88
589.091	871.46
589.292	919.9
589.494	861.58
589.695	836.58
589.896	827.87
590.098	812.95
590.299	884.44
590.5	843.17
590.702	864.1
590.903	890.25
591.104	930.16
591.305	893.16
591.507	916.99
591.708	912.15
591.909	876.5
592.11	965.81
592.311	912.15
592.512	891.8
592.714	863.32
592.915	849.18
593.116	837.36
593.317	895.87
593.518	900.33
593.719	839.1
593.92	923.96
594.121	924.16
594.322	918.15
594.523	907.69
594.724	869.72
594.925	864.68
595.126	918.73
595.327	917.96
595.528	919.31
595.729	886.18
595.929	884.63
596.13	908.08
596.331	886.96
596.532	908.66
596.733	941.98
596.934	928.61
597.135	949.54
597.335	927.45
597.536	855.77
597.737	911.76
597.938	863.32
598.138	925.13
598.339	888.31
598.54	902.65
598.74	874.17
598.941	910.98
599.142	939.08
599.342	926.87
599.543	869.33
599.744	885.6
599.944	899.75
600.145	892
600.345	918.35
600.546	972.98
600.746	962.91
600.947	971.43
601.147	903.81
601.348	942.95
601.548	876.69
601.749	911.56
601.949	854.8
602.15	868.94
602.35	856.54
602.551	924.93
602.751	834.07
602.951	833.68
603.152	814.69
603.352	933.26
603.552	911.37
603.753	919.9
603.953	895.68
604.153	907.88
604.354	846.27
604.554	892.58
604.754	884.83
604.954	836.97
605.155	897.81
605.355	874.17
605.555	934.81
605.755	928.23
605.955	867.78
606.155	916.41
606.356	898.78
606.556	915.63
606.756	903.23
606.956	858.28
607.156	936.95
607.356	854.41
607.556	912.73
607.756	896.26
607.956	940.24
608.156	885.6
608.356	865.26
608.556	889.28
608.756	869.52
608.956	850.53
609.156	895.68
609.356	854.8
609.556	827.87
609.755	869.33
609.955	831.74
610.155	875.53
610.355	877.85
610.555	834.84
610.755	862.55
610.954	805
611.154	859.06
611.354	895.68
611.554	841.62
611.753	831.16
611.953	800.35
612.153	849.37
612.352	863.13
612.552	787.37
612.752	774.59
612.951	815.47
613.151	851.12
613.351	801.71
613.55	809.65
613.75	850.92
613.949	836.78
614.149	836.97
614.348	811.2
614.548	787.76
614.747	738.94
614.947	802.48
615.146	742.62
615.346	846.66
615.545	840.65
615.745	816.63
615.944	845.3
616.144	821.08
616.343	807.91
616.542	793.57
616.742	806.94
616.941	777.88
617.14	743.97
617.34	801.71
617.539	782.14
617.738	760.64
617.938	864.1
618.137	788.73
618.336	763.93
618.535	828.25
618.734	755.4
618.934	798.42
619.133	777.3
619.332	820.12
619.531	798.03
619.73	779.62
619.929	836.39
620.128	813.33
620.328	821.67
620.527	792.6
620.726	745.33
620.925	807.72
621.124	784.47
621.323	804.62
621.522	731.19
621.721	751.92
621.92	752.89
622.119	817.98
622.318	770.71
622.517	773.81
622.715	781.75
622.914	706.58
623.113	774.97
623.312	744.75
623.511	781.37
623.71	731.57
623.909	738.94
624.107	811.01
624.306	693.6
624.505	722.47
624.704	721.3
624.902	735.06
625.101	786.4
625.3	738.55
625.499	711.81
625.697	750.17
625.896	717.43
626.095	770.71
626.293	674.81
626.492	713.36
626.69	747.27
626.889	678.1
627.088	723.24
627.286	714.72
627.485	709.87
627.683	694.57
627.882	735.45
628.08	654.85
628.279	672.67
628.477	753.85
628.676	684.69
628.874	703.48
629.073	684.49
629.271	666.86
629.469	735.06
629.668	701.16
629.866	698.64
630.065	680.23
630.263	729.83
630.461	663.76
630.66	672.87
630.858	706.58
631.056	746.49
631.254	736.03
631.453	651.56
631.651	718.79
631.849	679.65
632.047	728.09
632.245	646.52
632.444	731.57
632.642	721.69
632.84	704.64
633.038	685.07
633.236	677.13
633.434	666.47
633.632	664.54
633.83	682.17
634.028	739.32
634.227	693.99
634.425	770.13
634.623	676.55
634.821	705.61
635.019	692.82
635.216	669.57
635.414	719.75
635.612	728.09
635.81	696.31
636.008	763.54
636.206	680.23
636.404	693.41
636.602	634.12
636.8	709.49
636.997	724.02
637.195	699.8
637.393	685.07
637.591	763.74
637.789	702.71
637.986	697.47
638.184	697.47
638.382	738.55
638.58	728.09
638.777	736.61
638.975	692.82
639.173	712.97
639.37	716.65
639.568	699.41
639.765	707.74
639.963	702.9
640.161	747.85
640.358	725.76
640.556	660.47
640.753	663.96
640.951	662.6
641.148	704.26
641.346	702.9
641.543	693.02
641.741	692.44
641.938	678.29
642.136	674.42
642.333	603.31
642.531	722.66
642.728	723.24
642.925	685.07
643.123	689.34
643.32	687.4
643.517	692.82
643.715	682.17
643.912	697.47
644.109	720.14
644.306	663.96
644.504	625.4
644.701	677.91
644.898	686.82
645.095	651.17
645.293	662.6
645.49	681.59
645.687	689.92
645.884	708.9
646.081	620.56
646.278	640.71
646.475	652.52
646.672	602.54
646.87	695.34
647.067	635.86
647.264	659.11
647.461	593.63
647.658	582.97
647.855	672.29
648.052	629.08
648.249	570.38
648.446	627.14
648.642	609.51
648.839	592.08
649.036	582.39
649.233	572.31
649.43	586.07
649.627	550.03
649.824	554.68
650.021	562.24
650.217	594.21
650.414	568.24
650.611	624.24
650.808	625.21
651.004	638.77
651.201	612.23
651.398	671.9
651.595	619.2
651.791	582.19
651.988	648.07
652.185	597.11
652.381	625.59
652.578	545.77
652.775	586.46
652.971	563.98
653.168	629.27
653.364	640.32
653.561	551
653.757	571.73
653.954	604.67
654.15	567.08
654.347	662.79
654.543	579.29
654.74	568.83
654.936	588.98
655.133	602.15
655.329	612.61
655.525	573.86
655.722	614.36
655.918	537.63
656.115	603.51
656.311	523.3
656.507	493.65
656.704	452.19
656.9	509.54
657.096	524.46
657.292	494.04
657.489	554.29
657.685	552.55
657.881	540.73
658.077	551.58
658.273	539.38
658.47	621.72
658.666	551
658.862	559.72
659.058	559.33
659.254	642.26
659.45	516.51
659.646	564.56
659.842	542.48
660.038	596.92
660.234	527.95
660.43	599.24
660.626	623.46
660.822	572.89
661.018	606.99
661.214	548.48
661.41	532.59
661.606	614.55
661.802	609.71
661.998	598.08
662.194	558.56
662.39	629.66
662.586	605.25
662.781	577.35
662.977	574.06
663.173	626.37
663.369	557.2
663.564	601.57
663.76	591.88
663.956	569.41
664.152	601.18
664.347	500.43
664.543	585.68
664.739	542.28
664.934	486.87
665.13	525.04
665.326	580.84
665.521	602.73
665.717	511.09
665.912	507.8
666.108	461.1
666.304	514.96
666.499	532.59
666.695	492.68
666.89	536.47
667.086	565.92
667.281	546.16
667.477	605.83
667.672	564.18
667.867	573.86
668.063	590.91
668.258	519.03
668.454	539.38
668.649	606.03
668.844	533.56
669.04	583.94
669.235	528.14
669.43	533.76
669.626	488.03
669.821	546.74
670.016	503.34
670.211	538.41
670.407	533.76
670.602	536.66
670.797	515.74
670.992	557.01
671.187	503.15
671.382	570.38
671.578	501.79
671.773	564.18
671.968	497.72
672.163	533.76
672.358	550.03
672.553	516.32
672.748	518.84
672.943	600.99
673.138	552.74
673.333	554.88
673.528	473.89
673.723	508.57
673.918	502.76
674.113	475.05
674.308	604.67
674.503	530.85
674.698	562.43
674.892	549.06
675.087	529.5
675.282	544.03
675.477	474.08
675.672	530.85
675.867	517.48
676.061	481.83
676.256	444.25
676.451	485.32
676.646	531.43
676.84	489.39
677.035	490.36
677.23	471.37
677.424	546.35
677.619	548.29
677.814	533.18
678.008	529.3
678.203	461.68
678.397	489.78
678.592	501.01
678.787	569.41
678.981	494.62
679.176	514
679.37	495.01
679.565	460.13
679.759	503.53
679.954	519.03
680.148	542.28
680.342	545.58
680.537	531.05
680.731	496.36
680.926	538.21
681.12	521.36
681.314	478.15
681.509	497.14
681.703	516.9
681.897	530.27
682.092	477.18
682.286	498.69
682.48	556.62
682.674	514.19
682.869	489.39
683.063	479.7
683.257	546.54
683.451	433.78
683.645	514.58
683.839	513.8
684.034	484.35
684.228	502.95
684.422	464.98
684.616	469.43
684.81	505.28
685.004	499.66
685.198	483.58
685.392	525.81
685.586	463.04
685.78	512.64
685.974	517.1
686.168	522.52
686.362	551.58
686.556	476.21
686.75	431.65
686.944	447.35
687.138	446.76
687.331	369.07
687.525	404.33
687.719	331.87
687.913	394.45
688.107	415.57
688.301	357.06
688.494	419.64
688.688	375.47
688.882	337.3
689.076	333.23
689.269	394.26
689.463	447.35
689.657	383.99
689.85	383.8
690.044	400.65
690.238	403.56
690.431	389.22
690.625	378.76
690.818	423.71
691.012	468.66
691.205	450.64
691.399	388.64
691.593	434.56
691.786	487.06
691.98	499.27
692.173	472.15
692.366	471.18
692.56	473.5
692.753	526.2
692.947	446.96
693.14	508.38
693.333	514.96
693.527	454.71
693.72	489.78
693.914	458.78
694.107	473.89
694.3	483.38
694.493	494.62
694.687	545.96
694.88	473.31
695.073	530.46
695.266	533.95
695.46	475.25
695.653	545.38
695.846	525.43
696.039	489.78
696.232	448.12
696.425	535.11
696.618	523.1
696.812	517.87
697.005	581.81
697.198	640.71
697.391	573.09
697.584	601.38
697.777	637.02
697.97	604.48
698.163	630.82
698.356	582.19
698.549	655.04
698.742	615.52
698.935	559.53
699.127	611.06
699.32	594.98
699.513	592.08
699.706	623.85
699.899	649.62
700.092	576.58
700.285	637.99
700.477	606.41
700.67	666.47
700.863	649.42
701.056	724.99
701.248	698.83
701.441	700.38
701.634	681.78
701.826	760.44
702.019	664.34
702.212	726.15
702.404	665.7
702.597	695.34
702.79	676.74
702.982	692.24
703.175	737.97
703.367	739.52
703.56	738.55
703.752	823.02
703.945	795.9
704.137	783.5
704.33	801.32
704.522	819.73
704.715	787.57
704.907	814.11
705.1	824.77
705.292	847.82
705.484	828.25
705.677	837.55
705.869	869.33
706.061	892.38
706.254	909.05
706.446	893.35
706.638	879.4
706.831	926.48
707.023	873.98
707.215	990.23
707.407	959.81
707.599	943.15
707.792	984.03
707.984	939.08
708.176	992.55
708.368	980.73
708.56	988.48
708.752	978.6
708.944	980.15
709.136	1021.42
709.329	986.16
709.521	1122.75
709.713	1077.02
709.905	1061.33
710.097	1116.16
710.289	1044.86
710.481	1092.52
710.672	1084.58
710.864	1082.84
711.056	1152.39
711.248	1130.69
711.44	1162.08
711.632	1150.07
711.824	1142.51
712.016	1245.39
712.207	1182.04
712.399	1178.94
712.591	1283.17
712.783	1201.02
712.975	1217.88
713.166	1158.01
713.358	1225.24
713.55	1276.58
713.741	1294.22
713.933	1290.53
714.125	1260.89
714.316	1257.4
714.508	1337.23
714.7	1330.06
714.891	1339.75
715.083	1370.55
715.274	1308.36
715.466	1360.09
715.657	1354.86
715.849	1290.73
716.04	1361.45
716.232	1295.38
716.423	1340.13
716.615	1269.03
716.806	1254.88
716.998	1255.85
717.189	1220.01
717.381	1165.18
717.572	1127.01
717.763	1183.97
717.955	1178.16
718.146	1140.57
718.337	1132.44
718.528	1076.83
718.72	1058.04
718.911	1108.02
719.102	1060.75
719.293	1146.58
719.485	1119.84
719.676	1116.55
719.867	1071.6
720.058	1063.07
720.249	1063.07
720.44	1119.26
720.632	1135.15
720.823	1163.44
721.014	1238.22
721.205	1259.15
721.396	1325.02
721.587	1411.43
721.778	1383.15
721.969	1405.81
722.16	1470.33
722.351	1451.54
722.542	1562.36
722.733	1585.42
722.924	1528.65
723.115	1555
723.305	1555.19
723.496	1560.62
723.687	1493.58
723.878	1500.75
724.069	1523.03
724.26	1512.18
724.45	1462.39
724.641	1432.94
724.832	1505.4
725.023	1462.39
725.213	1474.01
725.404	1468.2
725.595	1447.28
725.785	1501.52
725.976	1549.57
726.167	1506.37
726.357	1525.55
726.548	1639.28
726.739	1544.54
726.929	1605.76
727.12	1594.14
727.31	1653.81
727.501	1593.36
727.691	1645.48
727.882	1630.75
728.072	1659.43
728.263	1667.76
728.453	1708.83
728.644	1691.78
728.834	1685.39
729.024	1680.74
729.215	1704.57
729.405	1724.33
729.596	1781.3
729.786	1769.28
729.976	1777.03
730.167	1812.3
730.357	1759.4
730.547	1783.23
730.737	1814.81
730.928	1869.84
731.118	1895.22
731.308	1864.03
731.498	1854.53
731.688	1935.52
731.879	1918.28
732.069	1969.42
732.259	2014.37
732.449	2014.37
732.639	2079.86
732.829	2081.02
733.019	2120.55
733.209	2220.91
733.399	2195.14
733.589	2253.85
733.779	2234.47
733.969	2233.5
734.159	2323.79
734.349	2334.25
734.539	2370.87
734.729	2331.15
734.919	2407.68
735.109	2469.49
735.299	2385.01
735.488	2416.01
735.678	2427.06
735.868	2450.5
736.058	2421.05
736.248	2407.68
736.437	2387.14
736.627	2391.6
736.817	2505.14
737.007	2466.77
737.196	2493.51
737.386	2488.47
737.576	2446.82
737.765	2569.46
737.955	2498.16
738.144	2621.77
738.334	2570.43
738.524	2518.12
738.713	2568.88
738.903	2579.53
739.092	2636.69
739.282	2606.08
739.471	2653.55
739.661	2613.05
739.85	2686.29
740.04	2652.38
740.229	2666.72
740.419	2696.95
740.608	2699.46
740.797	2736.08
740.987	2785.1
741.176	2764.18
741.365	2729.88
741.555	2695.78
741.744	2769.99
741.933	2758.17
742.123	2766.69
742.312	2784.33
742.501	2824.24
742.69	2831.99
742.88	2726.59
743.069	2868.02
743.258	2834.89
743.447	2843.42
743.636	2871.32
743.825	2817.46
744.014	2848.84
744.204	2906.58
744.393	2831.6
744.582	2960.64
744.771	2937.39
744.96	2902.7
745.149	2928.86
745.338	2912
745.527	2953.08
745.716	2897.09
745.905	2891.47
746.094	2965.09
746.283	2929.05
746.471	2949.98
746.66	2985.82
746.849	2979.23
747.038	2987.57
747.227	2944.94
747.416	3025.73
747.604	2943.2
747.793	2968.77
747.982	2970.13
748.171	2955.4
748.359	3005.78
748.548	2998.61
748.737	2976.52
748.926	2995.51
749.114	2896.31
749.303	2997.25
749.491	2970.71
749.68	2872.48
749.869	3021.28
750.057	2954.63
750.246	2902.32
750.434	2928.47
750.623	2921.69
750.811	2923.05
751	2965.67
751.188	2915.88
751.377	3006.36
751.565	2946.49
751.754	2909.87
751.942	2938.94
752.131	2962.57
752.319	2931.57
752.507	2889.34
752.696	2902.9
752.884	3038.91
753.072	2919.17
753.261	2953.47
753.449	2968.39
753.637	2918.59
753.825	3031.55
754.014	2952.69
754.202	2887.79
754.39	2975.17
754.578	2964.51
754.766	2899.22
754.955	2926.15
755.143	2989.12
755.331	2929.44
755.519	2931.38
755.707	2907.94
755.895	2905.61
756.083	2953.08
756.271	2873.84
756.459	2878.68
756.647	2928.67
756.835	2913.94
757.023	2866.67
757.211	2881.78
757.399	2864.92
757.587	2862.02
757.775	2806.41
757.963	2836.64
758.151	2889.72
758.339	2813.77
758.526	2824.62
758.714	2872.67
758.902	2755.65
759.09	2653.74
759.278	2473.94
759.465	2292.4
759.653	1995.39
759.841	1812.88
760.028	1524.19
760.216	1343.81
760.404	1279.1
760.591	1089.04
760.779	881.53
760.967	749.98
761.154	629.66
761.342	673.06
761.529	656.98
761.717	737.77
761.905	725.57
762.092	746.69
762.28	717.04
762.467	707.94
762.655	656.01
762.842	672.29
763.029	705.22
763.217	686.62
763.404	701.74
763.592	730.22
763.779	666.09
763.966	752.5
764.154	784.85
764.341	821.28
764.528	817.4
764.716	893.55
764.903	934.62
765.09	972.01
765.277	1018.13
765.465	1166.34
765.652	1207.8
765.839	1249.65
766.026	1354.47
766.213	1428.09
766.4	1473.43
766.588	1657.88
766.775	1670.47
766.962	1785.75
767.149	1820.05
767.336	1930.87
767.523	1902.58
767.71	2032.97
767.897	2161.82
768.084	2216.45
768.271	2192.04
768.458	2274
768.645	2327.86
768.832	2291.04
769.019	2366.61
769.206	2375.71
769.392	2465.42
769.579	2517.54
769.766	2457.67
769.953	2410.01
770.14	2500.29
770.327	2515.02
770.513	2515.02
770.7	2612.86
770.887	2557.64
771.073	2588.45
771.26	2531.68
771.447	2563.65
771.634	2510.75
771.82	2609.95
772.007	2514.44
772.193	2546.21
772.38	2565
772.567	2574.3
772.753	2541.37
772.94	2609.95
773.126	2596.2
773.313	2619.64
773.499	2600.07
773.686	2598.33
773.872	2528.58
774.059	2598.13
774.245	2503.78
774.432	2531.1
774.618	2496.22
774.804	2562.29
774.991	2498.16
775.177	2568.49
775.363	2486.73
775.55	2546.79
775.736	2508.43
775.922	2515.6
776.109	2533.42
776.295	2551.83
776.481	2571.01
776.667	2529.74
776.853	2507.65
777.04	2464.06
777.226	2512.3
777.412	2587.67
777.598	2447.21
777.784	2478.2
777.97	2471.04
778.156	2513.66
778.342	2472.59
778.528	2456.12
778.715	2433.84
778.901	2457.47
779.087	2463.67
779.272	2440.23
779.458	2403.61
779.644	2441.78
779.83	2445.46
780.016	2527.42
780.202	2439.84
780.388	2419.5
780.574	2358.28
780.76	2391.79
780.946	2433.84
781.131	2418.72
781.317	2389.27
781.503	2351.11
781.689	2354.59
781.874	2472.59
782.06	2367.57
782.246	2395.28
782.432	2344.52
782.617	2394.51
782.803	2448.56
782.989	2333.86
783.174	2345.29
783.36	2267.02
783.545	2330.38
783.731	2315.07
783.916	2215.87
784.102	2318.94
784.288	2306.35
784.473	2304.8
784.659	2286.01
784.844	2336.96
785.029	2271.09
785.215	2261.4
785.4	2222.07
785.586	2335.61
785.771	2218.2
785.956	2254.81
786.142	2266.63
786.327	2213.74
786.512	2238.73
786.698	2258.11
786.883	2150
787.068	2191.07
787.254	2210.64
787.439	2170.15
787.624	2182.74
787.809	2171.12
787.994	2170.34
788.18	2224.4
788.365	2130.62
788.55	2112.41
788.735	2131.98
788.92	2131.98
789.105	2135.47
789.29	2184.87
789.475	2115.51
789.66	2117.06
789.845	2060.49
790.03	2032.59
790.215	2090.9
790.4	2122.87
790.585	2135.66
790.77	2079.67
790.955	1989.19
791.14	2081.6
791.325	2134.11
791.51	2020.38
791.695	2043.82
791.879	2036.27
792.064	2008.17
792.249	2103.5
792.434	2059.32
792.618	2063.97
792.803	2030.26
792.988	2011.66
793.173	2058.94
793.357	2061.65
793.542	1987.64
793.727	2053.12
793.911	2119.97
794.096	2030.07
794.281	2078.31
794.465	2153.68
794.65	2026.97
794.834	2092.45
795.019	2138.18
795.203	2135.27
795.388	2079.09
795.572	2134.11
795.757	2072.89
795.941	2115.51
796.126	2066.69
796.31	2000.62
796.494	2054.29
796.679	2032.78
796.863	2020.38
797.048	2092.07
797.232	2103.69
797.416	2112.6
797.601	2068.43
797.785	2136.63
797.969	2139.53
798.153	2025.61
798.338	2063.78
798.522	2111.83
798.706	2110.28
798.89	2100.4
799.074	2186.62
799.258	2158.52
799.443	2125.58
799.627	2089.16
799.811	2145.15
799.995	2085.87
800.179	2069.98
800.363	2088.77
800.547	2102.14
800.731	2155.03
800.915	2028.52
801.099	2067.85
801.283	2101.37
801.467	2117.25
801.651	2049.44
801.835	2112.6
802.019	2102.72
802.202	2097.69
802.386	2047.5
802.57	2032.97
802.754	2044.99
802.938	2015.54
803.121	2062.23
803.305	2075.21
803.489	2099.04
803.673	2111.63
803.856	2120.55
804.04	2057.77
804.224	2070.56
804.407	2061.65
804.591	2035.1
804.775	2076.37
804.958	2106.98
805.142	2193.4
805.326	2099.24
805.509	2102.53
805.693	2126.36
805.876	2150.58
806.06	2089.55
806.243	2115.9
806.427	2128.1
806.61	2153.68
806.794	2109.89
806.977	2127.13
807.16	2133.33
807.344	2130.43
807.527	2113.57
807.71	2082.57
807.894	2075.79
808.077	2119.77
808.26	2049.83
808.444	2039.75
808.627	2125.2
808.81	2041.69
808.993	2044.79
809.177	2012.44
809.36	2018.83
809.543	2021.74
809.726	1951.41
809.909	1991.51
810.092	1987.25
810.276	1970.39
810.459	1988.61
810.642	1954.31
810.825	1924.48
811.008	1928.35
811.191	1863.64
811.374	1868.87
811.557	1865.77
811.74	1942.11
811.923	1835.93
812.106	1839.42
812.289	1855.89
812.472	1798.35
812.654	1797.18
812.837	1767.35
813.02	1734.41
813.203	1728.6
813.386	1629.4
813.569	1614.09
813.751	1602.08
813.934	1636.18
814.117	1622.04
814.3	1518.19
814.482	1496.29
814.665	1499.97
814.848	1486.99
815.03	1427.32
815.213	1392.64
815.396	1429.64
815.578	1402.13
815.761	1333.55
815.943	1434.88
816.126	1346.53
816.309	1327.35
816.491	1227.57
816.674	1210.9
816.856	1249.85
817.039	1253.14
817.221	1318.63
817.403	1295.38
817.586	1306.03
817.768	1300.61
817.951	1243.26
818.133	1228.54
818.315	1267.28
818.498	1301.97
818.68	1358.54
818.862	1321.92
819.045	1339.94
819.227	1313.98
819.409	1343.04
819.591	1339.94
819.774	1324.25
819.956	1290.53
820.138	1345.17
820.32	1367.84
820.502	1389.93
820.684	1445.34
820.866	1441.46
821.048	1445.73
821.231	1471.69
821.413	1463.74
821.595	1454.06
821.777	1484.28
821.959	1497.07
822.141	1545.7
822.323	1399.61
822.505	1345.56
822.686	1304.1
822.868	1244.62
823.05	1131.86
823.232	1139.99
823.414	1118.1
823.596	1198.12
823.778	1150.65
823.96	1166.15
824.141	1168.47
824.323	1190.56
824.505	1242.87
824.687	1311.07
824.868	1305.45
825.05	1415.89
825.232	1403.49
825.413	1470.72
825.595	1427.32
825.777	1399.42
825.958	1462
826.14	1402.13
826.321	1454.44
826.503	1407.36
826.685	1432.36
826.866	1467.43
827.048	1451.73
827.229	1432.36
827.411	1359.12
827.592	1329.86
827.773	1359.51
827.955	1331.03
828.136	1311.46
828.318	1270.97
828.499	1319.4
828.68	1262.83
828.862	1285.88
829.043	1296.35
829.224	1254.5
829.406	1260.7
829.587	1264.57
829.768	1265.73
829.949	1300.61
830.131	1267.09
830.312	1348.46
830.493	1274.45
830.674	1294.6
830.855	1282.4
831.036	1286.66
831.218	1310.1
831.399	1388.57
831.58	1335.87
831.761	1289.18
831.942	1310.3
832.123	1259.92
832.304	1243.65
832.485	1270.19
832.666	1303.32
832.847	1280.07
833.028	1303.32
833.209	1316.5
833.389	1270.58
833.57	1231.83
833.751	1259.34
833.932	1329.48
834.113	1326.18
834.294	1253.72
834.475	1280.85
834.655	1334.51
834.836	1338.58
835.017	1324.63
835.198	1274.07
835.378	1325.21
835.559	1346.91
835.74	1338
835.92	1286.08
836.101	1299.25
836.281	1332.77
836.462	1321.92
836.643	1371.33
836.823	1351.95
837.004	1359.12
837.184	1404.65
837.365	1345.56
837.545	1372.3
837.726	1346.33
837.906	1410.46
838.087	1366.1
838.267	1367.26
838.448	1297.9
838.628	1364.93
838.808	1301.97
838.989	1387.21
839.169	1302.35
839.349	1387.41
839.53	1376.17
839.71	1355.83
839.89	1358.93
840.07	1376.75
840.251	1316.5
840.431	1397.87
840.611	1351.56
840.791	1333.93
840.971	1343.43
841.151	1356.6
841.332	1330.83
841.512	1360.86
841.692	1261.47
841.872	1365.32
842.052	1339.94
842.232	1372.88
842.412	1279.3
842.592	1329.09
842.772	1357.18
842.952	1361.45
843.132	1329.28
843.312	1285.11
843.492	1281.23
843.672	1339.55
843.851	1247.13
844.031	1317.66
844.211	1286.27
844.391	1302.93
844.571	1323.28
844.751	1331.8
844.93	1316.11
845.11	1281.43
845.29	1295.77
845.47	1361.25
845.649	1315.33
845.829	1330.64
846.009	1274.07
846.188	1309.52
846.368	1311.27
846.547	1297.7
846.727	1327.73
846.907	1260.5
847.086	1314.56
847.266	1336.06
847.445	1298.09
847.625	1283.17
847.804	1253.53
847.984	1294.22
848.163	1268.83
848.343	1271.74
848.522	1282.78
848.701	1265.35
848.881	1230.67
849.06	1265.54
849.239	1261.28
849.419	1271.93
849.598	1204.51
849.777	1214.39
849.957	1211.29
850.136	1174.87
850.315	1167.12
850.494	1157.82
850.674	1165.95
850.853	1222.14
851.032	1164.6
851.211	1230.86
851.39	1193.85
851.569	1152.39
851.748	1168.28
851.927	1191.92
852.107	1180.29
852.286	1150.07
852.465	1160.72
852.644	1202.38
852.823	1205.87
853.002	1217.3
853.181	1173.51
853.359	1180.1
853.538	1118.49
853.717	1181.45
853.896	1113.84
854.075	1080.9
854.254	1065.21
854.433	970.27
854.611	1045.83
854.79	986.93
854.969	1028.98
855.148	1088.65
855.327	993.13
855.505	1049.9
855.684	1039.83
855.863	1087.68
856.041	1046.61
856.22	1136.51
856.399	1055.71
856.577	1152.78
856.756	1132.63
856.934	1204.32
857.113	1209.16
857.291	1144.84
857.47	1081.87
857.648	1144.06
857.827	1131.86
858.005	1174.09
858.184	1077.99
858.362	1195.6
858.541	1125.85
858.719	1117.91
858.898	1094.07
859.076	1110.74
859.254	1143.09
859.433	1096.98
859.611	1071.02
859.789	1026.46
859.967	1161.11
860.146	1154.14
860.324	1065.4
860.502	1074.51
860.68	1041.96
860.859	1065.4
861.037	1101.44
861.215	1111.51
861.393	1086.13
861.571	1077.99
861.749	1071.99
861.927	1091.94
862.105	1048.35
862.283	1078.96
862.461	1053.78
862.639	1034.98
862.817	1059.39
862.995	1069.47
863.173	1049.71
863.351	1086.32
863.529	1065.4
863.707	1117.91
863.885	1070.44
864.063	1007.66
864.241	1009.99
864.418	1095.62
864.596	1031.69
864.774	999.72
864.952	1026.26
865.129	1048.74
865.307	993.33
865.485	963.49
865.663	1048.16
865.84	984.61
866.018	997.59
866.196	910.21
866.373	897.23
866.551	895.29
866.728	839.49
866.906	875.53
867.084	905.56
867.261	920.86
867.439	921.64
867.616	994.68
867.794	933.85
867.971	974.14
868.149	958.06
868.326	997.78
868.503	998.17
868.681	986.35
868.858	937.33
869.035	959.03
869.213	971.24
869.39	961.36
869.567	1019.29
869.745	953.41
869.922	987.32
870.099	979.57
870.276	997.59
870.454	979.18
870.631	978.21
870.808	955.55
870.985	968.91
871.162	1040.79
871.339	1011.34
871.517	923.77
871.694	913.89
871.871	972.01
872.048	934.81
872.225	928.03
872.402	942.76
872.579	898.97
872.756	949.73
872.933	903.62
873.11	940.43
873.287	945.08
873.463	917.76
873.64	890.06
873.817	919.51
873.994	909.63
874.171	904.4
874.348	938.11
874.524	853.44
874.701	906.53
874.878	838.72
875.055	913.11
875.231	923
875.408	882.11
875.585	849.95
875.762	872.82
875.938	893.74
876.115	892.96
876.291	858.87
876.468	895.68
876.645	855.96
876.821	878.05
876.998	847.43
877.174	878.82
877.351	861.19
877.527	832.32
877.704	869.13
877.88	880.37
878.057	825.35
878.233	892.38
878.409	852.86
878.586	875.14
878.762	863.9
878.938	885.41
879.115	770.52
879.291	840.46
879.467	786.21
879.644	843.75
879.82	859.06
879.996	822.63
880.172	779.24
880.349	807.13
880.525	860.42
880.701	778.27
880.877	809.27
881.053	824.96
881.229	800.35
881.405	824.96
881.581	779.24
881.757	784.85
881.933	814.5
882.109	847.82
882.285	830.38
882.461	794.54
882.637	818.18
882.813	768.39
882.989	769.94
883.165	854.22
883.341	762.19
883.517	851.7
883.693	819.92
883.869	851.7
884.044	789.5
884.22	836.97
884.396	866.23
884.572	798.03
884.747	825.15
884.923	818.95
885.099	843.17
885.275	878.63
885.45	800.93
885.626	773.42
885.801	769.16
885.977	799.77
886.153	748.04
886.328	805
886.504	777.49
886.679	813.33
886.855	775.17
887.03	826.9
887.206	824.57
887.381	804.42
887.557	807.72
887.732	812.95
887.908	833.68
888.083	819.53
888.258	757.34
888.434	774.97
888.609	780.98
888.784	833.48
888.96	782.92
889.135	786.6
889.31	762.77
889.485	802.1
889.661	781.37
889.836	850.15
890.011	836
890.186	787.18
890.361	768.58
890.537	821.28
890.712	828.45
890.887	820.89
891.062	807.13
891.237	851.5
891.412	766.64
891.587	791.64
891.762	847.24
891.937	858.87
892.112	761.99
892.287	767.8
892.462	757.34
892.637	707.74
892.812	726.73
892.987	751.14
893.161	706.58
893.336	711.23
893.511	737.97
893.686	736.03
893.861	721.3
894.035	711.04
894.21	732.54
894.385	680.42
894.56	686.43
894.734	659.5
894.909	687.21
895.084	672.87
895.258	646.71
895.433	667.25
895.608	641.29
895.782	601.76
895.957	611.26
896.131	620.36
896.306	572.31
896.48	565.34
896.655	573.86
896.829	538.6
897.004	533.95
897.178	543.64
897.353	512.64
897.527	570.76
897.701	551.78
897.876	512.45
898.05	561.85
898.224	561.66
898.399	627.92
898.573	540.34
898.747	446.57
898.921	508.38
899.096	404.14
899.27	434.56
899.444	429.52
899.618	483.58
899.792	480.67
899.967	478.15
900.141	495.98
900.315	424.1
900.489	452.96
900.663	483.19
900.837	469.24
901.011	399.88
901.185	507.6
901.359	461.49
901.533	470.4
901.707	482.22
901.881	476.21
902.055	417.51
902.229	448.31
902.403	510.9
902.576	471.56
902.75	471.37
902.924	562.43
903.098	510.31
903.272	553.52
903.446	570.38
903.619	554.88
903.793	566.31
903.967	571.54
904.14	599.44
904.314	617.26
904.488	573.09
904.661	604.28
904.835	572.31
905.009	619.59
905.182	649.42
905.356	609.51
905.529	601.57
905.703	581.61
905.876	589.56
906.05	523.3
906.223	523.68
906.397	461.68
906.57	498.11
906.744	466.14
906.917	461.1
907.09	494.43
907.264	452.38
907.437	449.48
907.61	389.03
907.784	420.8
907.957	437.47
908.13	436.5
908.304	487.45
908.477	404.33
908.65	435.14
908.823	385.15
908.996	481.06
909.17	403.75
909.343	436.11
909.516	408.4
909.689	414.41
909.862	389.42
910.035	398.13
910.208	351.05
910.381	353.38
910.554	489.58
910.727	422.16
910.9	381.86
911.073	371.01
911.246	477.76
911.419	442.5
911.592	435.33
911.765	401.04
911.938	392.71
912.11	379.73
912.283	403.56
912.456	466.33
912.629	403.37
912.802	392.52
912.974	352.22
913.147	346.21
913.32	284.21
913.493	330.32
913.665	343.11
913.838	359.77
914.01	350.09
914.183	343.69
914.356	360.74
914.528	373.33
914.701	414.41
914.873	428.94
915.046	309.79
915.218	319.86
915.391	252.24
915.563	272.78
915.736	333.42
915.908	361.71
916.081	353.19
916.253	320.83
916.425	349.12
916.598	372.17
916.77	351.25
916.942	319.09
917.115	258.25
917.287	362.87
917.459	297.19
917.632	295.25
917.804	245.27
917.976	328
918.148	314.82
918.32	313.08
918.493	347.37
918.665	409.57
918.837	327.8
919.009	374.69
919.181	389.8
919.353	359
919.525	361.52
919.697	381.08
919.869	383.02
920.041	422.55
920.213	489.58
920.385	393.68
920.557	363.26
920.729	393.87
920.901	376.24
921.073	361.13
921.244	331.87
921.416	409.76
921.588	388.83
921.76	339.24
921.932	426.42
922.103	366.55
922.275	378.57
922.447	365.58
922.619	357.64
922.79	339.24
922.962	359.19
923.134	370.62
923.305	311.53
923.477	295.84
923.648	319.28
923.82	329.16
923.991	274.33
924.163	262.51
924.335	333.23
924.506	302.23
924.677	372.37
924.849	294.67
925.02	331.68
925.192	328
925.363	337.3
925.535	316.18
925.706	302.23
925.877	360.93
926.049	302.42
926.22	325.09
926.391	316.95
926.562	331.1
926.734	286.15
926.905	331.87
927.076	253.99
927.247	290.8
927.419	253.21
927.59	277.62
927.761	263.29
927.932	242.75
928.103	259.8
928.274	217.37
928.445	222.99
928.616	224.92
928.787	223.57
928.958	257.47
929.129	242.94
929.3	202.26
929.471	192.37
929.642	140.64
929.813	129.6
929.984	204.97
930.155	130.38
930.326	203.03
930.496	154.79
930.667	83.1
930.838	128.24
931.009	103.06
931.18	120.88
931.35	127.47
931.521	141.42
931.692	80.97
931.863	65.47
932.033	79.23
932.204	106.93
932.374	106.93
932.545	54.23
932.716	125.92
932.886	88.14
933.057	37.18
933.227	67.02
933.398	108.09
933.568	41.64
933.739	14.51
933.909	-0.21
934.08	77.29
934.25	-7.57
934.421	-2.34
934.591	83.3
934.761	47.84
934.932	-7.57
935.102	54.62
935.272	36.02
935.443	31.76
935.613	15.48
935.783	45.13
935.953	6.18
936.123	185.21
936.294	0.57
936.464	15.48
936.634	34.66
936.804	7.73
936.974	-3.5
937.144	59.08
937.314	42.41
937.484	24.2
937.655	-6.02
937.825	53.46
937.995	-4.67
938.165	72.64
938.334	28.46
938.504	40.67
938.674	29.63
938.844	31.37
939.014	84.26
939.184	84.65
939.354	138.32
939.524	91.24
939.694	53.07
939.863	83.3
940.033	145.68
940.203	133.67
940.373	92.79
940.542	105.58
940.712	61.21
940.882	99.18
941.051	107.9
941.221	108.29
941.391	127.86
941.56	49
941.73	37.76
941.899	168.16
942.069	64.89
942.238	101.89
942.408	40.67
942.577	90.46
942.747	71.48
942.916	26.33
943.086	49.2
943.255	83.68
943.425	86.2
943.594	39.51
943.763	-14.93
943.933	40.28
944.102	-28.88
944.271	39.7
944.441	74.77
944.61	35.44
944.779	51.13
944.948	102.48
945.117	22.07
945.287	44.16
945.456	9.67
945.625	24.4
945.794	83.3
945.963	22.26
946.132	59.27
946.301	33.31
946.47	74.58
946.639	5.41
946.808	42.8
946.977	73.41
947.146	102.48
947.315	42.22
947.484	82.33
947.653	31.56
947.822	24.59
947.991	20.13
948.16	123.98
948.329	81.36
948.498	50.55
948.666	57.53
948.835	95.11
949.004	2.31
949.173	20.33
949.341	60.05
949.51	75.93
949.679	100.15
949.847	66.63
950.016	133.28
950.185	107.32
950.353	43
950.522	41.25
950.69	92.6
950.859	26.91
951.028	104.03
951.196	62.76
951.365	41.83
951.533	61.79
951.701	91.24
951.87	85.43
952.038	7.54
952.207	36.6
952.375	119.53
952.543	21.49
952.712	59.85
952.88	20.13
953.048	124.95
953.217	51.91
953.385	43.77
953.553	93.37
953.721	22.07
953.89	32.34
954.058	19.75
954.226	38.93
954.394	77.1
954.562	4.44
954.73	49.58
954.898	37.18
955.067	75.35
955.235	29.43
955.403	99.76
955.571	120.3
955.739	93.76
955.907	36.8
956.075	32.92
956.243	31.76
956.41	71.67
956.578	20.71
956.746	12
956.914	28.46
957.082	70.51
957.25	53.65
957.418	28.66
957.585	53.26
957.753	107.32
957.921	17.61
958.089	43.58
958.256	71.09
958.424	84.65
958.592	72.45
958.759	27.11
958.927	67.41
959.095	57.14
959.262	70.51
959.43	64.7
959.597	22.65
959.765	41.25
959.932	42.61
960.1	68.18
960.267	27.69
960.435	56.17
960.602	72.25
960.77	40.09
960.937	5.22
961.104	63.73
961.272	2.12
961.439	36.21
961.606	63.34
961.774	90.66
961.941	54.43
962.108	81.75
962.275	77.29
962.443	85.43
962.61	86.59
962.777	140.06
962.944	93.76
963.111	70.51
963.278	64.7
963.446	83.88
963.613	46.48
963.78	79.23
963.947	90.27
964.114	55.78
964.281	135.41
964.448	92.98
964.615	51.33
964.782	69.73
964.949	111.19
965.116	109.26
965.282	123.59
965.449	58.69
965.616	54.23
965.783	92.01
965.95	69.93
966.117	32.92
966.283	75.35
966.45	82.52
966.617	68.76
966.784	116.04
966.95	92.01
967.117	110.61
967.284	34.86
967.45	54.43
967.617	108.29
967.784	88.33
967.95	130.57
968.117	86.4
968.283	88.91
968.45	169.51
968.616	101.51
968.783	134.25
968.949	110.42
969.116	135.41
969.282	83.68
969.449	95.5
969.615	76.32
969.781	26.33
969.948	64.7
970.114	48.61
970.28	142.39
970.447	84.85
970.613	135.41
970.779	87.17
970.945	121.08
971.112	107.32
971.278	75.16
971.444	80.2
971.61	114.88
971.776	64.11
971.942	87.36
972.108	97.05
972.275	85.62
972.441	99.96
972.607	145.49
972.773	54.81
972.939	110.23
973.105	76.9
973.271	19.94
973.437	30.6
973.602	46.29
973.768	98.99
973.934	76.13
974.1	64.7
974.266	25.95
974.432	71.09
974.598	47.06
974.763	117.2
974.929	51.52
975.095	134.25
975.261	27.69
975.426	83.1
975.592	69.54
975.758	137.93
975.923	27.69
976.089	51.71
976.255	101.12
976.42	68.38
976.586	94.73
976.751	109.64
976.917	136.38
977.082	97.83
977.248	26.33
977.413	32.53
977.579	74.96
977.744	82.33
977.91	47.84
978.075	32.53
978.24	97.83
978.406	87.36
978.571	69.93
978.736	32.92
978.902	100.73
979.067	38.15
979.232	9.28
979.397	115.26
979.563	121.27
979.728	42.22
979.893	82.91
980.058	61.6
980.223	100.73
980.388	67.41
980.554	73.03
980.719	68.18
980.884	69.73
981.049	101.12
981.214	47.26
981.379	98.6
981.544	42.41
981.709	50.94
981.874	58.5
982.039	74
982.204	99.76
982.368	67.21
982.533	65.66
982.698	92.98
982.863	116.23
983.028	68.76
983.193	76.13
983.357	82.13
983.522	66.83
983.687	45.32
983.852	63.15
984.016	37.18
984.181	83.88
984.346	73.61
984.51	107.32
984.675	55.2
984.839	91.05
985.004	90.85
985.168	132.31
985.333	86.98
985.498	62.56
985.662	109.06
985.827	97.24
985.991	62.18
986.155	69.15
986.32	93.18
986.484	126.5
986.649	82.91
986.813	47.06
986.977	79.03
987.142	108.87
987.306	45.9
987.47	25.95
987.634	70.31
987.799	89.3
987.963	68.57
988.127	89.5
988.291	156.53
988.455	63.53
988.62	55.2
988.784	99.96
988.948	97.05
989.112	57.33
989.276	93.76
989.44	88.14
989.604	26.72
989.768	36.8
989.932	155.95
990.096	56.95
990.26	34.28
990.424	37.18
990.588	74.96
990.752	134.83
990.915	94.15
991.079	49.2
991.243	45.13
991.407	93.37
991.571	87.56
991.734	87.75
991.898	78.06
992.062	129.79
992.226	60.24
992.389	43.38
992.553	7.93
992.717	51.71
992.88	53.85
993.044	77.87
993.207	32.92
993.371	75.16
993.535	104.22
993.698	34.08
993.862	77.68
994.025	73.41
994.189	75.35
994.352	78.06
994.515	70.51
994.679	83.1
994.842	56.36
995.006	74.38
995.169	43.77
995.332	36.02
995.496	74.19
995.659	8.51
995.822	59.27
995.985	26.91
996.149	97.44
996.312	66.25
996.475	122.82
996.638	63.34
996.801	100.15
996.964	132.89
997.128	41.06
997.291	67.41
997.454	76.13
997.617	5.99
997.78	104.03
997.943	54.62
998.106	100.93
998.269	33.7
998.432	79.03
998.595	51.91
998.758	29.24
998.92	19.55
999.083	-16.87
999.246	62.76
999.409	17.03
999.572	13.55
999.735	26.53
999.897	74.77
1000.06	44.35
1000.223	59.27
1000.386	69.15
1000.548	55.4
1000.711	71.48
1000.874	57.53
1001.036	1.34
1001.199	88.53
1001.361	37.38
1001.524	59.46
1001.687	58.5
1001.849	24.98
1002.012	37.18
1002.174	43.96
1002.337	73.41
1002.499	53.26
1002.661	95.11
1002.824	12.19
1002.986	29.63
1003.149	54.04
1003.311	21.49
1003.473	103.06
1003.636	7.54
1003.798	81.16
1003.96	59.85
1004.123	43.96
1004.285	25.75
1004.447	22.46
1004.609	33.89
1004.771	112.74
1004.933	-5.44
1005.096	10.83
1005.258	16.06
1005.42	18.2
1005.582	76.9
1005.744	31.95
1005.906	-16.68
1006.068	33.11
1006.23	-7.77
1006.392	-9.32
1006.554	34.47
1006.716	62.37
1006.878	66.63
1007.04	7.93
1007.202	32.53
1007.363	56.56
1007.525	40.48
1007.687	34.86
1007.849	80.2
1008.011	4.44
1008.172	-6.6
1008.334	29.63
1008.496	49.58
1008.658	-22.68
1008.819	-5.25
1008.981	-27.14
1009.143	0.57
1009.304	30.6
1009.466	73.61
1009.627	81.75
1009.789	111
1009.95	51.52
1010.112	5.6
1010.273	39.12
1010.435	6.57
1010.596	2.89
1010.758	9.67
1010.919	45.32
1011.081	16.65
1011.242	26.72
1011.403	44.16
1011.565	15.87
1011.726	39.9
1011.887	4.83
1012.049	29.24
1012.21	49.39
1012.371	60.43
1012.532	-32.18
1012.693	12.77
1012.855	0.95
1013.016	5.02
1013.177	54.81
1013.338	31.56
1013.499	91.82
1013.66	62.56
1013.821	57.14
1013.982	11.61
1014.143	23.62
1014.304	14.71
1014.465	53.07
1014.626	67.99
1014.787	27.88
1014.948	122.82
1015.109	-36.05
1015.27	70.12
1015.431	19.94
1015.592	5.22
1015.752	70.7
1015.913	29.63
1016.074	75.35
1016.235	14.9
1016.395	31.56
1016.556	23.62
1016.717	3.28
1016.877	61.98
1017.038	15.48
1017.199	37.57
1017.359	39.9
1017.52	42.61
1017.681	17.23
1017.841	-4.86
1018.002	25.17
1018.162	17.61
1018.323	74
1018.483	11.61
1018.644	21.88
1018.804	3.08
1018.964	-4.08
1019.125	-11.06
1019.285	27.69
1019.446	3.47
1019.606	6.96
1019.766	-17.07
1019.926	35.25
1020.087	37.38
1020.247	-11.25
1020.407	23.43
1020.567	51.91
1020.728	19.94
1020.888	-30.63
1021.048	3.47
1021.208	-7.18
1021.368	-19.58
1021.528	54.62
1021.688	60.43
1021.848	53.65
1022.008	12.77
1022.168	28.27
1022.328	23.23
1022.488	36.6
1022.648	19.75
1022.808	17.23
1022.968	32.73
1023.128	-8.35
1023.288	-0.21
1023.448	5.02
1023.608	43.96
1023.767	20.13
1023.927	-7.96
1024.087	-2.92
1024.247	-12.22
1024.406	26.91
1024.566	-20.94
1024.726	-8.93
1024.885	0.18
1025.045	43.38
1025.205	9.48
1025.364	8.51
1025.524	24.4
1025.683	1.53
1025.843	26.53
1026.003	0.57
1026.162	52.3
1026.321	36.21
1026.481	16.26
1026.64	1.73
1026.8	-4.28
1026.959	26.91
1027.119	31.76
1027.278	-6.8
1027.437	-11.06
1027.597	20.13
1027.756	7.54
1027.915	39.12
1028.074	35.05
1028.234	3.67
1028.393	30.98
1028.552	8.9
1028.711	-38.18
1028.87	66.44
1029.03	2.31
1029.189	7.15
1029.348	-67.63
1029.507	-5.25
1029.666	-25.98
1029.825	-2.34
1029.984	-23.85
1030.143	14.9
1030.302	-4.47
1030.461	-26.56
1030.62	22.65
1030.779	33.5
1030.938	-17.45
1031.097	-21.33
1031.255	50.75
1031.414	56.75
1031.573	54.81
1031.732	-24.43
1031.891	4.25
1032.049	66.05
1032.208	25.56
1032.367	-5.63
1032.525	-10.87
1032.684	9.28
1032.843	24.78
1033.001	-37.41
1033.16	132.7
1033.319	47.06
1033.477	19.75
1033.636	-3.7
1033.794	-44.77
1033.953	53.07
1034.111	31.37
1034.27	-2.34
1034.428	21.1
1034.587	-14.16
1034.745	21.1
1034.903	-7.57
1035.062	29.24
1035.22	-19
1035.378	30.79
1035.537	-5.05
1035.695	41.06
1035.853	2.89
1036.011	59.08
1036.17	48.03
1036.328	-28.5
1036.486	23.43
1036.644	26.53
1036.802	-69.18
1036.96	-11.45
1037.119	8.9
1037.277	-12.03
1037.435	-13.19
1037.593	-16.1
1037.751	13.35
1037.909	51.33
1038.067	51.33
