Data from oakcork_FLMT105791__251__17-33-22-054.txt Node

Date: Mon Mar 20 17:33:22 GMT 2023
User: antho
Spectrometer: FLMT10579
Trigger mode: 0
Integration Time (sec): 1.000000E-1
Scans to average: 10
Electric dark correction enabled: true
Nonlinearity correction enabled: false
Boxcar width: 0
XAxis mode: Wavelengths
Number of Pixels in Spectrum: 3648
>>>>>Begin Spectral Data<<<<<
345.248	-143.31
345.464	-143.31
345.681	-143.31
345.898	-167.14
346.114	-150.09
346.331	-13.69
346.548	21.96
346.764	2
346.981	-11.56
347.197	5.49
347.414	10.72
347.631	-13.69
347.847	36.88
348.064	-29.38
348.28	24.67
348.497	-24.35
348.713	-9.04
348.93	23.9
349.146	15.95
349.363	-6.52
349.579	23.12
349.796	15.76
350.012	16.15
350.229	27.58
350.445	23.12
350.661	-13.11
350.878	31.84
351.094	30.48
351.311	29.13
351.527	20.02
351.743	10.72
351.96	30.1
352.176	47.15
352.392	30.48
352.609	42.69
352.825	3.36
353.041	27.19
353.257	-8.46
353.474	14.98
353.69	18.28
353.906	9.75
354.122	-10.59
354.339	60.9
354.555	18.47
354.771	-10.2
354.987	55.67
355.203	45.79
355.42	10.72
355.636	-3.42
355.852	-7.69
356.068	13.24
356.284	-36.17
356.5	58.19
356.716	21.96
356.932	3.55
357.148	44.24
357.364	14.98
357.58	35.33
357.796	56.83
358.012	61.29
358.228	31.84
358.444	-24.74
358.66	49.28
358.876	27.58
359.092	-2.65
359.308	33.2
359.524	20.21
359.74	-19.12
359.956	13.82
360.172	20.99
360.388	39.78
360.604	-13.11
360.819	77.37
361.035	34.75
361.251	27.19
361.467	0.65
361.683	50.25
361.898	24.86
362.114	17.89
362.33	39.98
362.546	48.31
362.762	10.33
362.977	19.44
363.193	-29.19
363.409	51.6
363.624	-13.11
363.84	-1.49
364.056	3.36
364.271	44.24
364.487	30.87
364.703	1.23
364.918	-5.36
365.134	32.23
365.35	13.05
365.565	93.64
365.781	31.45
365.996	14.79
366.212	73.69
366.427	19.05
366.643	8.98
366.858	-12.14
367.074	-15.24
367.289	71.94
367.505	102.17
367.72	-11.95
367.936	11.3
368.151	36.68
368.367	42.69
368.582	39.4
368.798	12.66
369.013	70.2
369.228	39.78
369.444	37.85
369.659	81.44
369.874	22.35
370.09	77.37
370.305	-31.9
370.52	4.71
370.736	68.84
370.951	32.42
371.166	100.04
371.381	89.19
371.597	36.68
371.812	-12.14
372.027	-4.78
372.242	18.28
372.458	99.46
372.673	-2.45
372.888	33.78
373.103	21.38
373.318	78.14
373.533	43.85
373.749	36.88
373.964	-3.81
374.179	74.85
374.394	-2.26
374.609	84.54
374.824	-16.21
375.039	83.18
375.254	-17.95
375.469	81.83
375.684	44.24
375.899	72.91
376.114	41.72
376.329	38.81
376.544	73.88
376.759	59.16
376.974	21.18
377.189	32.61
377.404	14.79
377.619	80.28
377.834	-16.79
378.049	-12.34
378.264	2.78
378.478	56.64
378.693	2.58
378.908	48.89
379.123	17.5
379.338	60.13
379.553	41.91
379.767	23.12
379.982	63.42
380.197	92.68
380.412	38.23
380.626	51.02
380.841	75.43
381.056	77.18
381.271	94.03
381.485	21.76
381.7	17.31
381.915	55.28
382.129	28.93
382.344	39.01
382.559	59.16
382.773	64.39
382.988	-25.9
383.202	28.16
383.417	14.21
383.632	127.16
383.846	65.94
384.061	29.32
384.275	29.13
384.49	53.73
384.704	60.32
384.919	57.8
385.133	45.01
385.348	69.43
385.562	18.86
385.777	83.57
385.991	56.64
386.206	39.01
386.42	32.81
386.634	76.01
386.849	75.04
387.063	66.33
387.277	13.63
387.492	46.76
387.706	62.26
387.92	10.91
388.135	82.41
388.349	49.66
388.563	46.76
388.778	59.74
388.992	68.26
389.206	80.86
389.42	114.76
389.635	53.93
389.849	68.46
390.063	94.81
390.277	62.64
390.491	126.58
390.706	39.59
390.92	66.33
391.134	75.24
391.348	129.49
391.562	12.46
391.776	63.81
391.99	56.25
392.205	77.18
392.419	29.71
392.633	40.75
392.847	84.15
393.061	25.45
393.275	81.24
393.489	52.18
393.703	66.71
393.917	59.74
394.131	39.2
394.345	46.56
394.559	96.55
394.773	44.43
394.986	79.69
395.2	55.09
395.414	81.63
395.628	35.52
395.842	76.98
396.056	45.4
396.27	9.36
396.484	63.42
396.697	41.53
396.911	96.55
397.125	44.63
397.339	87.25
397.553	81.44
397.766	134.91
397.98	84.73
398.194	111.47
398.408	67.29
398.621	114.96
398.835	135.49
399.049	89.19
399.262	124.84
399.476	141.31
399.69	113.02
399.903	152.74
400.117	110.5
400.331	129.1
400.544	84.73
400.758	215.32
400.971	131.23
401.185	138.4
401.398	72.91
401.612	155.84
401.826	132.78
402.039	113.21
402.253	86.86
402.466	120.19
402.68	102.56
402.893	135.49
403.106	80.86
403.32	86.09
403.533	153.9
403.747	106.04
403.96	137.43
404.174	155.45
404.387	78.92
404.6	101.2
404.814	153.71
405.027	127.36
405.24	115.73
405.454	119.99
405.667	157.19
405.88	61.48
406.094	114.96
406.307	164.17
406.52	94.42
406.733	93.84
406.947	74.08
407.16	159.52
407.373	140.92
407.586	93.64
407.799	109.53
408.012	163.39
408.226	151.77
408.439	183.74
408.652	94.42
408.865	157.39
409.078	174.05
409.291	138.21
409.504	110.31
409.717	146.54
409.93	138.59
410.143	126.39
410.357	74.85
410.57	60.51
410.783	93.06
410.996	124.45
411.209	133.75
411.421	181.99
411.634	157.19
411.847	109.34
412.06	136.66
412.273	142.47
412.486	160.87
412.699	220.16
412.912	127.55
413.125	166.49
413.338	140.34
413.55	171.14
413.763	120.58
413.976	185.67
414.189	138.59
414.402	157.77
414.615	190.32
414.827	96.36
415.04	182.19
415.253	184.32
415.466	173.66
415.678	198.85
415.891	171.34
416.104	149.06
416.316	141.31
416.529	153.51
416.742	153.51
416.954	208.54
417.167	176.37
417.38	129.68
417.592	178.12
417.805	138.98
418.017	92.29
418.23	176.18
418.442	132.39
418.655	139.56
418.868	164.75
419.08	186.06
419.293	198.07
419.505	138.01
419.718	144.99
419.93	183.54
420.142	156.42
420.355	183.35
420.567	221.91
420.78	168.82
420.992	138.98
421.205	231.4
421.417	127.74
421.629	156.81
421.842	131.04
422.054	121.93
422.266	176.96
422.479	200.59
422.691	144.02
422.903	199.24
423.115	167.85
423.328	169.79
423.54	154.87
423.752	188.97
423.964	140.34
424.177	178.31
424.389	179.47
424.601	259.1
424.813	187.42
425.025	177.92
425.238	215.12
425.45	145.38
425.662	165.33
425.874	418.75
426.086	177.92
426.298	184.51
426.51	161.65
426.722	180.64
426.934	152.35
427.146	208.73
427.358	148.86
427.57	220.36
427.782	187.03
427.994	192.84
428.206	162.62
428.418	114.96
428.63	199.62
428.842	213.77
429.054	184.71
429.266	213.38
429.478	166.11
429.69	175.6
429.902	134.72
430.114	216.87
430.325	204.08
430.537	169.21
430.749	169.79
430.961	117.67
431.173	178.12
431.384	201.17
431.596	118.25
431.808	172.69
432.02	186.45
432.231	217.26
432.443	226.75
432.655	206.79
432.867	153.51
433.078	187.61
433.29	260.65
433.502	237.21
433.713	241.09
433.925	214.16
434.136	256.2
434.348	132.78
434.56	135.3
434.771	288.75
434.983	147.51
435.194	190.71
435.406	195.17
435.617	243.02
435.829	269.76
436.04	221.71
436.252	246.32
436.463	257.36
436.675	285.65
436.886	229.27
437.098	257.94
437.309	299.79
437.521	228.11
437.732	238.37
437.943	219.39
438.155	222.87
438.366	195.36
438.578	280.22
438.789	236.44
439	243.99
439.211	229.27
439.423	258.52
439.634	246.12
439.845	255.04
440.057	252.9
440.268	286.62
440.479	210.09
440.69	248.25
440.902	257.17
441.113	236.05
441.324	240.7
441.535	268.6
441.746	305.99
441.957	237.4
442.168	261.24
442.38	269.57
442.591	304.05
442.802	218.81
443.013	269.76
443.224	275.96
443.435	271.31
443.646	260.27
443.857	276.54
444.068	259.69
444.279	244.77
444.49	326.92
444.701	260.27
444.912	357.92
445.123	306.19
445.334	278.29
445.545	317.04
445.756	284.49
445.967	250.19
446.178	302.89
446.388	302.12
446.599	292.82
446.81	318.97
447.021	281.77
447.232	319.36
447.443	347.07
447.653	305.22
447.864	349
448.075	301.73
448.286	311.42
448.496	324.59
448.707	342.22
448.918	293.01
449.129	380.58
449.339	301.73
449.55	318.59
449.761	292.04
449.971	359.08
450.182	297.85
450.393	340.28
450.603	294.37
450.814	362.57
451.024	350.17
451.235	359.27
451.446	383.49
451.656	390.85
451.867	290.49
452.077	344.35
452.288	353.27
452.498	386.2
452.709	336.41
452.919	360.05
453.13	324.01
453.34	355.2
453.55	297.47
453.761	361.79
453.971	336.99
454.182	388.72
454.392	357.92
454.602	399.18
454.813	343.19
455.023	364.5
455.233	322.46
455.444	355.01
455.654	318.78
455.864	313.74
456.075	351.52
456.285	303.47
456.495	353.27
456.705	365.47
456.916	397.25
457.126	379.81
457.336	357.14
457.546	303.67
457.756	341.25
457.967	390.85
458.177	337.77
458.387	371.09
458.597	328.66
458.807	349.78
459.017	375.16
459.227	339.32
459.437	330.79
459.647	362.76
459.857	401.51
460.068	350.17
460.278	411.2
460.488	379.62
460.698	429.41
460.908	354.82
461.117	315.87
461.327	335.63
461.537	363.15
461.747	379.23
461.957	388.53
462.167	473.39
462.377	380.78
462.587	395.31
462.797	404.61
463.007	377.87
463.216	418.75
463.426	430.96
463.636	421.85
463.846	343.97
464.056	396.08
464.265	413.13
464.475	381.55
464.685	388.33
464.895	394.92
465.104	367.22
465.314	417.98
465.524	352.1
465.733	388.14
465.943	449.17
466.153	459.44
466.362	418.36
466.572	437.35
466.782	390.08
466.991	403.45
467.201	446.26
467.41	387.75
467.62	390.08
467.829	404.8
468.039	439.1
468.249	423.4
468.458	411.2
468.668	441.81
468.877	433.86
469.086	477.07
469.296	442.97
469.505	404.61
469.715	502.26
469.924	432.31
470.134	455.56
470.343	495.67
470.552	451.69
470.762	462.35
470.971	421.66
471.18	462.93
471.39	438.32
471.599	402.87
471.808	468.55
472.018	422.43
472.227	492.38
472.436	499.54
472.645	456.34
472.855	456.15
473.064	524.54
473.273	489.86
473.482	501.48
473.691	531.32
473.901	504.97
474.11	473
474.319	553.41
474.528	512.91
474.737	560.58
474.946	521.24
475.155	525.51
475.364	527.64
475.573	522.02
475.783	533.26
475.992	546.82
476.201	577.63
476.41	519.89
476.619	495.67
476.828	509.23
477.037	509.62
477.245	528.41
477.454	569.49
477.663	528.03
477.872	529.19
478.081	608.43
478.29	509.81
478.499	635.17
478.708	567.55
478.917	615.41
479.125	548.56
479.334	568.13
479.543	554.57
479.752	605.52
479.961	589.44
480.169	593.32
480.378	579.37
480.587	708.21
480.796	621.8
481.004	617.92
481.213	629.74
481.422	641.95
481.63	626.45
481.839	646.6
482.048	693.87
482.256	658.61
482.465	649.12
482.674	686.51
482.882	670.82
483.091	729.52
483.299	662.87
483.508	702.79
483.716	656.29
483.925	673.34
484.134	644.86
484.342	639.82
484.551	699.1
484.759	691.74
484.967	714.8
485.176	706.66
485.384	685.74
485.593	700.85
485.801	698.14
486.01	667.33
486.218	635.94
486.426	622.57
486.635	648.34
486.843	633.23
487.051	636.91
487.26	625.87
487.468	687.29
487.676	677.99
487.885	619.67
488.093	673.34
488.301	732.82
488.509	723.9
488.717	742.31
488.926	740.37
489.134	694.65
489.342	706.08
489.55	676.82
489.758	736.89
489.967	727.97
490.175	804.5
490.383	745.22
490.591	843.06
490.799	720.22
491.007	807.6
491.215	795.2
491.423	746.38
491.631	780.87
491.839	770.79
492.047	810.9
492.255	722.35
492.463	697.94
492.671	767.69
492.879	820.97
493.087	777.38
493.295	793.27
493.503	782.61
493.711	815.93
493.919	855.46
494.127	827.37
494.334	873.09
494.542	794.62
494.75	824.07
494.958	826.4
495.166	883.55
495.374	868.63
495.581	839.38
495.789	859.72
495.997	913.97
496.205	849.45
496.412	833.95
496.62	850.42
496.828	849.84
497.035	844.42
497.243	880.65
497.451	897.31
497.658	880.06
497.866	844.42
498.074	931.21
498.281	833.76
498.489	946.13
498.696	873.67
498.904	861.27
499.112	851
499.319	915.91
499.527	835.31
499.734	916.68
499.942	844.03
500.149	862.43
500.357	888.01
500.564	818.45
500.771	870.38
500.979	824.85
501.186	827.75
501.394	890.53
501.601	875.41
501.808	898.28
502.016	868.25
502.223	856.81
502.43	855.07
502.638	860.11
502.845	855.07
503.052	936.06
503.26	910.1
503.467	981.98
503.674	878.32
503.881	894.79
504.089	959.5
504.296	914.75
504.503	846.16
504.71	910.68
504.917	875.41
505.125	908.35
505.332	901.57
505.539	920.75
505.746	973.45
505.953	975
506.16	970.93
506.367	1001.74
506.574	1006.97
506.781	1034.29
506.988	959.31
507.195	990.89
507.402	931.02
507.609	990.5
507.816	947.1
508.023	930.25
508.23	939.35
508.437	909.71
508.644	974.23
508.851	1025.76
509.058	977.52
509.265	989.73
509.472	1017.04
509.679	1111.59
509.885	996.89
510.092	971.9
510.299	1019.95
510.506	987.98
510.713	986.43
510.92	1000.58
511.126	1030.99
511.333	1064.32
511.54	1046.49
511.746	1084.08
511.953	1066.64
512.16	1086.41
512.367	1022.27
512.573	1017.24
512.78	1006
512.987	1034.48
513.193	1037.19
513.4	948.65
513.606	1014.14
513.813	1051.34
514.02	1061.61
514.226	1116.05
514.433	1067.81
514.639	1007.36
514.846	1048.82
515.052	988.95
515.259	1039.13
515.465	1016.08
515.672	1015.3
515.878	1094.74
516.085	1070.91
516.291	1093.96
516.497	1054.82
516.704	1050.17
516.91	978.68
517.117	953.88
517.323	930.25
517.529	988.76
517.736	983.72
517.942	963.38
518.148	987.59
518.354	1044.56
518.561	1017.82
518.767	999.8
518.973	1058.51
519.179	1065.29
519.386	1003.09
519.592	1041.07
519.798	1095.12
520.004	1120.89
520.21	1101.32
520.417	1142.2
520.623	1143.37
520.829	1157.51
521.035	1178.82
521.241	1160.03
521.447	1175.14
521.653	1260.39
521.859	1149.18
522.065	1160.61
522.271	1297.78
522.477	1229.78
522.683	1247.8
522.889	1211.37
523.095	1187.54
523.301	1189.87
523.507	1215.25
523.713	1216.6
523.919	1199.17
524.125	1312.12
524.331	1249.35
524.537	1346.22
524.742	1291.39
524.948	1311.54
525.154	1315.61
525.36	1397.76
525.566	1284.8
525.772	1373.73
525.977	1288.29
526.183	1302.24
526.389	1342.73
526.595	1247.22
526.8	1297.2
527.006	1224.55
527.212	1214.86
527.417	1209.05
527.623	1191.61
527.829	1262.33
528.034	1298.95
528.24	1308.25
528.446	1288.87
528.651	1362.11
528.857	1371.21
529.062	1420.43
529.268	1382.06
529.473	1358.81
529.679	1366.37
529.884	1445.61
530.09	1429.53
530.295	1430.69
530.501	1449.88
530.706	1415.97
530.912	1371.41
531.117	1405.89
531.323	1433.79
531.528	1488.43
531.733	1473.9
531.939	1420.43
532.144	1503.93
532.35	1409.96
532.555	1531.83
532.76	1436.89
532.966	1457.62
533.171	1428.37
533.376	1392.53
533.581	1409.19
533.787	1421.2
533.992	1481.07
534.197	1492.5
534.402	1435.73
534.607	1457.24
534.813	1551.98
535.018	1485.33
535.223	1458.98
535.428	1483.39
535.633	1551.4
535.838	1557.4
536.043	1514.39
536.249	1587.05
536.454	1526.6
536.659	1580.27
536.864	1510.13
537.069	1528.54
537.274	1553.14
537.479	1544.23
537.684	1558.18
537.889	1495.21
538.094	1627.54
538.299	1552.95
538.504	1603.71
538.708	1574.07
538.913	1622.31
539.118	1555.27
539.323	1586.66
539.528	1558.18
539.733	1579.3
539.938	1590.73
540.142	1572.71
540.347	1540.36
540.552	1534.93
540.757	1529.89
540.962	1540.94
541.166	1499.67
541.371	1504.9
541.576	1525.24
541.781	1465.57
541.985	1597.32
542.19	1553.34
542.395	1632.38
542.599	1640.33
542.804	1594.41
543.008	1660.48
543.213	1565.93
543.418	1538.03
543.622	1566.7
543.827	1588.99
544.031	1663.38
544.236	1686.83
544.44	1616.89
544.645	1684.7
544.849	1621.15
545.054	1650.02
545.258	1713.37
545.463	1696.32
545.667	1631.03
545.872	1660.67
546.076	1644.4
546.281	1644.2
546.485	1634.32
546.689	1656.8
546.894	1659.12
547.098	1638.39
547.302	1623.28
547.507	1638.97
547.711	1695.35
547.915	1701.36
548.119	1655.83
548.324	1652.15
548.528	1748.25
548.732	1640.72
548.936	1701.94
549.141	1723.25
549.345	1657.57
549.549	1679.27
549.753	1691.09
549.957	1765.1
550.161	1739.91
550.366	1662.8
550.57	1650.4
550.774	1701.94
550.978	1684.12
551.182	1694.97
551.386	1671.52
551.59	1667.65
551.794	1690.51
551.998	1736.81
552.202	1673.27
552.406	1665.71
552.61	1730.42
552.814	1724.22
553.018	1760.06
553.222	1678.3
553.426	1678.11
553.63	1769.56
553.833	1700.97
554.037	1668.03
554.241	1726.74
554.445	1725.38
554.649	1698.65
554.853	1701.55
555.056	1755.8
555.26	1769.36
555.464	1706.2
555.668	1701.94
555.871	1737.78
556.075	1766.07
556.279	1668.81
556.483	1644.4
556.686	1691.28
556.89	1704.65
557.094	1709.11
557.297	1629.29
557.501	1713.37
557.704	1605.65
557.908	1691.48
558.112	1667.65
558.315	1725.77
558.519	1646.14
558.722	1676.17
558.926	1631.42
559.129	1584.53
559.333	1566.7
559.536	1602.55
559.74	1589.76
559.943	1582.2
560.147	1567.87
560.35	1565.74
560.553	1580.46
560.757	1580.85
560.96	1681.79
561.164	1599.25
561.367	1661.06
561.57	1571.74
561.774	1629.87
561.977	1606.04
562.18	1595.38
562.384	1699.42
562.587	1618.63
562.79	1609.33
562.993	1605.45
563.197	1636.45
563.4	1666.87
563.603	1641.1
563.806	1710.27
564.009	1570.77
564.212	1611.07
564.416	1524.47
564.619	1597.51
564.822	1530.28
565.025	1586.27
565.228	1552.56
565.431	1558.76
565.634	1507.22
565.837	1512.46
566.04	1523.69
566.243	1501.99
566.446	1416.74
566.649	1515.94
566.852	1482.42
567.055	1468.09
567.258	1528.73
567.461	1575.04
567.664	1582.2
567.867	1491.72
568.07	1500.06
568.273	1494.44
568.475	1557.79
568.678	1475.84
568.881	1470.8
569.084	1478.74
569.287	1386.71
569.489	1432.83
569.692	1452.39
569.895	1464.99
570.098	1407.83
570.3	1394.08
570.503	1363.85
570.706	1373.15
570.909	1379.93
571.111	1334.98
571.314	1305.34
571.516	1323.16
571.719	1402.41
571.922	1355.52
572.124	1312.31
572.327	1353.78
572.529	1293.33
572.732	1337.5
572.935	1362.69
573.137	1391.75
573.34	1317.55
573.542	1398.14
573.745	1371.02
573.947	1414.81
574.15	1364.43
574.352	1289.26
574.554	1371.6
574.757	1294.1
574.959	1321.42
575.162	1330.53
575.364	1319.68
575.566	1411.13
575.769	1283.83
575.971	1327.81
576.173	1231.13
576.376	1288.29
576.578	1319.1
576.78	1351.84
576.982	1233.27
577.185	1278.41
577.387	1247.41
577.589	1228.03
577.791	1288.68
577.993	1304.18
578.196	1264.65
578.398	1277.25
578.6	1290.81
578.802	1222.22
579.004	1222.42
579.206	1244.12
579.408	1263.68
579.61	1247.41
579.812	1297.01
580.014	1246.83
580.216	1253.03
580.418	1241.98
580.62	1244.12
580.822	1225.13
581.024	1270.85
581.226	1271.63
581.428	1269.11
581.63	1317.16
581.832	1242.18
582.034	1289.06
582.236	1284.03
582.438	1283.64
582.64	1349.13
582.841	1356.1
583.043	1361.91
583.245	1333.24
583.447	1282.48
583.649	1282.86
583.85	1287.71
584.052	1335.56
584.254	1277.83
584.456	1329.75
584.657	1287.9
584.859	1299.72
585.061	1271.82
585.262	1282.67
585.464	1251.87
585.666	1294.3
585.867	1268.53
586.069	1313.09
586.27	1335.37
586.472	1269.3
586.674	1237.53
586.875	1256.71
587.077	1286.16
587.278	1287.71
587.48	1217.57
587.681	1356.3
587.883	1268.72
588.084	1211.76
588.285	1256.9
588.487	1236.56
588.688	1233.85
588.89	1153.44
589.091	1154.8
589.292	1167.39
589.494	1100.74
589.695	1078.27
589.896	1006.97
590.098	1058.7
590.299	1123.99
590.5	1074.59
590.702	1114.5
590.903	1117.21
591.104	1181.54
591.305	1171.46
591.507	1228.23
591.708	1173.59
591.909	1162.16
592.11	1228.81
592.311	1202.07
592.512	1173.01
592.714	1118.57
592.915	1143.17
593.116	1129.61
593.317	1179.99
593.518	1145.5
593.719	1182.89
593.92	1216.41
594.121	1211.18
594.322	1202.07
594.523	1182.12
594.724	1142.4
594.925	1139.49
595.126	1180.37
595.327	1180.95
595.528	1180.76
595.729	1166.42
595.929	1162.35
596.13	1154.6
596.331	1169.91
596.532	1179.02
596.733	1230.17
596.934	1206.72
597.135	1209.63
597.335	1167.2
597.536	1157.9
597.737	1136.78
597.938	1150.15
598.138	1197.62
598.339	1164.87
598.54	1174.37
598.74	1176.3
598.941	1191.03
599.142	1208.08
599.342	1213.89
599.543	1138.33
599.744	1180.95
599.944	1148.79
600.145	1159.45
600.345	1169.91
600.546	1244.89
600.746	1221.45
600.947	1231.91
601.147	1212.15
601.348	1218.35
601.548	1152.86
601.749	1212.34
601.949	1142.4
602.15	1147.05
602.35	1150.54
602.551	1166.62
602.751	1136.39
602.951	1132.9
603.152	1104.81
603.352	1179.4
603.552	1171.07
603.753	1170.3
603.953	1188.9
604.153	1178.82
604.354	1164.49
604.554	1171.27
604.754	1170.1
604.954	1158.67
605.155	1185.41
605.355	1152.09
605.555	1205.75
605.755	1188.9
605.955	1181.92
606.155	1198.39
606.356	1156.35
606.556	1200.52
606.756	1190.25
606.956	1103.46
607.156	1210.79
607.356	1119.73
607.556	1172.43
607.756	1163.32
607.956	1187.15
608.156	1139.3
608.356	1119.73
608.556	1198.2
608.756	1164.49
608.956	1102.29
609.156	1178.24
609.356	1121.09
609.556	1100.74
609.755	1117.79
609.955	1122.83
610.155	1093.96
610.355	1141.24
610.555	1107.52
610.755	1150.15
610.954	1078.85
611.154	1100.94
611.354	1136.39
611.554	1107.33
611.753	1097.84
611.953	1043.2
612.153	1113.14
612.352	1120.31
612.552	1053.86
612.752	1048.04
612.951	1090.67
613.151	1079.62
613.351	1085.44
613.55	1076.33
613.75	1078.46
613.949	1093.57
614.149	1081.56
614.348	1096.09
614.548	1057.73
614.747	998.06
614.947	1091.83
615.146	991.28
615.346	1113.72
615.545	1103.65
615.745	1113.92
615.944	1090.28
616.144	1069.55
616.343	1101.13
616.542	1049.79
616.742	1062.19
616.941	1037.19
617.14	972.29
617.34	1058.51
617.539	1037.97
617.738	1018.21
617.938	1074.2
618.137	1046.69
618.336	1035.45
618.535	1040.29
618.734	1047.27
618.934	1073.62
619.133	1069.36
619.332	1086.6
619.531	1061.22
619.73	1033.71
619.929	1082.14
620.128	1044.56
620.328	1086.79
620.527	1041.26
620.726	1027.31
620.925	1088.73
621.124	1021.89
621.323	1088.54
621.522	991.28
621.721	1004.26
621.92	1016.85
622.119	1031.77
622.318	1001.54
622.517	1031.77
622.715	1041.07
622.914	973.26
623.113	1007.74
623.312	946.13
623.511	1031.57
623.71	1002.32
623.909	976.94
624.107	1029.25
624.306	934.89
624.505	944
624.704	968.03
624.902	986.43
625.101	1043.78
625.3	983.14
625.499	956.01
625.697	958.73
625.896	962.79
626.095	972.09
626.293	912.23
626.492	954.27
626.69	950.2
626.889	949.62
627.088	999.8
627.286	950.98
627.485	913.39
627.683	906.41
627.882	991.47
628.08	861.46
628.279	896.53
628.477	962.99
628.676	877.35
628.874	933.93
629.073	894.01
629.271	902.93
629.469	919.4
629.668	887.43
629.866	931.02
630.065	877.16
630.263	941.48
630.461	910.87
630.66	941.68
630.858	921.53
631.056	960.86
631.254	960.08
631.453	865.92
631.651	930.83
631.849	879.48
632.047	914.16
632.245	918.23
632.444	917.26
632.642	936.44
632.84	941.09
633.038	918.81
633.236	904.28
633.434	925.79
633.632	935.09
633.83	890.33
634.028	954.85
634.227	937.22
634.425	1014.14
634.623	903.12
634.821	965.31
635.019	957.37
635.216	923.66
635.414	945.16
635.612	959.69
635.81	919.01
636.008	994.96
636.206	930.05
636.404	939.54
636.602	903.12
636.8	900.8
636.997	983.72
637.195	953.69
637.393	930.05
637.591	961.83
637.789	962.41
637.986	887.43
638.184	947.1
638.382	966.48
638.58	953.11
638.777	986.82
638.975	956.21
639.173	941.09
639.37	931.8
639.568	958.73
639.765	939.35
639.963	945.16
640.161	959.89
640.358	949.23
640.556	922.5
640.753	899.83
640.951	895.56
641.148	920.95
641.346	908.35
641.543	902.35
641.741	926.76
641.938	887.23
642.136	888.4
642.333	856.43
642.531	963.38
642.728	963.57
642.925	873.67
643.123	916.68
643.32	938.77
643.517	905.25
643.715	909.13
643.912	872.9
644.109	923.27
644.306	898.08
644.504	889.75
644.701	894.98
644.898	921.72
645.095	866.5
645.293	924.43
645.49	895.56
645.687	913.39
645.884	922.5
646.081	838.22
646.278	854.3
646.475	848.68
646.672	881.81
646.87	877.93
647.067	852.94
647.264	886.07
647.461	826.78
647.658	833.95
647.855	856.62
648.052	836.08
648.249	726.62
648.446	832.98
648.642	801.6
648.839	789.97
649.036	813.42
649.233	792.88
649.43	807.6
649.627	779.32
649.824	799.27
650.021	813.42
650.217	804.12
650.414	788.62
650.611	822.52
650.808	861.27
651.004	825.23
651.201	844.42
651.398	894.01
651.595	841.32
651.791	820
651.988	856.04
652.185	808.38
652.381	827.75
652.578	776.22
652.775	813.8
652.971	833.57
653.168	805.08
653.364	861.27
653.561	747.74
653.757	794.23
653.954	826.2
654.15	805.08
654.347	853.71
654.543	818.45
654.74	750.45
654.936	752
655.133	816.71
655.329	808.96
655.525	767.88
655.722	823.68
655.918	771.37
656.115	793.27
656.311	675.08
656.507	678.18
656.704	667.72
656.9	690.19
657.096	676.63
657.292	702.98
657.489	758.58
657.685	721.77
657.881	733.79
658.077	740.95
658.273	719.45
658.47	787.84
658.666	753.55
658.862	770.4
659.058	752.97
659.254	804.7
659.45	750.84
659.646	769.24
659.842	775.05
660.038	814.19
660.234	752.19
660.43	769.05
660.626	842.28
660.822	807.02
661.018	818.84
661.214	758.78
661.41	742.5
661.606	794.82
661.802	825.62
661.998	769.43
662.194	751.61
662.39	795.78
662.586	766.53
662.781	800.43
662.977	805.47
663.173	788.42
663.369	785.52
663.564	766.53
663.76	814
663.956	770.02
664.152	802.37
664.347	731.07
664.543	780.48
664.739	769.82
664.934	731.85
665.13	718.67
665.326	798.88
665.521	768.66
665.717	731.07
665.912	726.62
666.108	688.84
666.304	744.64
666.499	736.5
666.695	659.97
666.89	718.67
667.086	758.78
667.281	768.85
667.477	813.61
667.672	750.84
667.867	721
668.063	771.95
668.258	722.35
668.454	736.5
668.649	831.24
668.844	741.73
669.04	752.58
669.235	729.72
669.43	700.85
669.626	697.55
669.821	711.12
670.016	688.25
670.211	734.17
670.407	708.4
670.602	732.82
670.797	733.79
670.992	770.98
671.187	702.2
671.382	767.11
671.578	669.66
671.773	733.59
671.968	680.7
672.163	726.04
672.358	718.29
672.553	660.55
672.748	700.27
672.943	773.89
673.138	705.3
673.333	730.69
673.528	684.77
673.723	739.99
673.918	715.38
674.113	674.3
674.308	777.57
674.503	723.32
674.698	739.79
674.892	747.54
675.087	716.54
675.282	720.61
675.477	712.67
675.672	745.6
675.867	673.72
676.061	677.02
676.256	690.58
676.451	706.27
676.646	698.52
676.84	661.52
677.035	634.97
677.23	655.51
677.424	716.35
677.619	740.76
677.814	747.93
678.008	743.09
678.203	649.7
678.397	673.14
678.592	700.27
678.787	760.13
678.981	696.39
679.176	698.14
679.37	696.97
679.565	682.25
679.759	690.58
679.954	724.29
680.148	760.33
680.342	725.45
680.537	717.32
680.731	697.55
680.926	712.47
681.12	724.29
681.314	720.42
681.509	703.37
681.703	678.76
681.897	721.19
682.092	705.89
682.286	652.22
682.48	750.64
682.674	721.19
682.869	700.46
683.063	665.78
683.257	741.34
683.451	672.95
683.645	719.25
683.839	702.4
684.034	681.86
684.228	694.26
684.422	664.81
684.616	634.39
684.81	714.22
685.004	672.75
685.198	667.52
685.392	710.73
685.586	651.44
685.78	670.24
685.974	685.35
686.168	691.35
686.362	710.92
686.556	627.22
686.75	608.43
686.944	590.02
687.138	622.19
687.331	522.41
687.525	553.02
687.719	487.53
687.913	547.21
688.107	547.79
688.301	530.16
688.494	544.69
688.688	511.94
688.882	478.81
689.076	525.31
689.269	536.16
689.463	616.37
689.657	539.07
689.85	548.76
690.044	548.76
690.238	552.83
690.431	555.34
690.625	573.17
690.818	590.99
691.012	605.72
691.205	609.59
691.399	590.22
691.593	620.06
691.786	679.15
691.98	676.44
692.173	705.69
692.366	666.75
692.56	663.07
692.753	696.59
692.947	648.54
693.14	713.25
693.333	704.92
693.527	638.85
693.72	688.64
693.914	661.32
694.107	649.7
694.3	680.31
694.493	685.35
694.687	741.73
694.88	683.22
695.073	724.1
695.266	737.47
695.46	697.17
695.653	756.45
695.846	760.33
696.039	716.74
696.232	734.17
696.425	774.67
696.618	775.44
696.812	769.05
697.005	848.48
697.198	924.24
697.391	858.17
697.584	848.48
697.777	907.19
697.97	872.51
698.163	893.43
698.356	878.51
698.549	944.58
698.742	909.13
698.935	899.63
699.127	942.64
699.32	886.26
699.513	907.96
699.706	911.84
699.899	933.73
700.092	883.16
700.285	972.87
700.477	868.25
700.67	932.76
700.863	968.61
701.056	1031.19
701.248	1003.87
701.441	1009.88
701.634	992.44
701.826	1088.54
702.019	991.66
702.212	1064.51
702.404	984.3
702.597	998.25
702.79	1052.89
702.982	1057.73
703.175	1081.37
703.367	1100.16
703.56	1109.46
703.752	1182.12
703.945	1182.89
704.137	1159.64
704.33	1185.41
704.522	1190.64
704.715	1199.75
704.907	1218.73
705.1	1247.8
705.292	1272.02
705.484	1268.92
705.677	1284.8
705.869	1316.38
706.061	1331.69
706.254	1346.22
706.446	1282.28
706.638	1318.32
706.831	1410.16
707.023	1345.45
707.215	1431.28
707.407	1428.56
707.599	1437.28
707.792	1485.91
707.984	1458.98
708.176	1485.91
708.368	1459.95
708.56	1453.36
708.752	1459.76
708.944	1491.72
709.136	1513.62
709.329	1523.11
709.521	1630.84
709.713	1595.96
709.905	1601.39
710.097	1609.52
710.289	1591.5
710.481	1582.01
710.672	1629.87
710.864	1609.91
711.056	1670.55
711.248	1696.52
711.44	1690.12
711.632	1678.5
711.824	1735.26
712.016	1776.73
712.207	1749.8
712.399	1755.22
712.591	1836.79
712.783	1795.52
712.975	1825.74
713.166	1798.43
713.358	1815.67
713.55	1912.54
713.741	1902.27
713.933	1885.03
714.125	1866.24
714.316	1863.91
714.508	1922.23
714.7	1891.81
714.891	1917.19
715.083	2013.68
715.274	1907.89
715.466	1978.61
715.657	1981.71
715.849	1899.37
716.04	1931.72
716.232	1899.37
716.423	1894.91
716.615	1834.27
716.806	1817.8
716.998	1798.81
717.189	1733.71
717.381	1648.08
717.572	1632.97
717.763	1655.44
717.955	1644.2
718.146	1616.3
718.337	1557.6
718.528	1544.62
718.72	1504.32
718.911	1530.28
719.102	1519.24
719.293	1546.17
719.485	1521.95
719.676	1501.02
719.867	1458.4
720.058	1502.38
720.249	1507.03
720.44	1548.3
720.632	1566.51
720.823	1652.15
721.014	1748.63
721.205	1765.1
721.396	1836.21
721.587	1922.81
721.778	1943.74
721.969	1979.77
722.16	2090.98
722.351	2064.25
722.542	2157.83
722.733	2187.08
722.924	2103.77
723.115	2145.04
723.305	2126.05
723.496	2141.36
723.687	2010.97
723.878	2063.09
724.069	2078.39
724.26	2039.25
724.45	1964.47
724.641	1966.6
724.832	2006.32
725.023	1997.4
725.213	2001.09
725.404	1959.82
725.595	1987.52
725.785	1979.97
725.976	2058.05
726.167	2045.07
726.357	2053.4
726.548	2116.17
726.739	2052.04
726.929	2145.62
727.12	2178.17
727.31	2157.63
727.501	2124.12
727.691	2114.23
727.882	2125.08
728.072	2174.88
728.263	2205.49
728.453	2204.91
728.644	2259.35
728.834	2214.4
729.024	2187.47
729.215	2223.9
729.405	2246.76
729.596	2284.34
729.786	2270.2
729.976	2340.72
730.167	2302.75
730.357	2317.09
730.547	2326
730.737	2345.18
730.928	2359.13
731.118	2435.08
731.308	2346.73
731.498	2405.44
731.688	2461.62
731.879	2495.53
732.069	2563.73
732.259	2573.8
732.449	2622.82
732.639	2677.26
732.829	2695.09
733.019	2715.24
733.209	2805.14
733.399	2821.22
733.589	2914.22
733.779	2897.75
733.969	2915.38
734.159	3003.34
734.349	3021.17
734.539	3072.51
734.729	3039.96
734.919	3024.65
735.109	3113
735.299	3062.63
735.488	3110.87
735.678	3109.13
735.868	3104.48
736.058	3063.6
736.248	3124.63
736.437	3037.05
736.627	2983.58
736.817	3174.42
737.007	3150.78
737.196	3209.1
737.386	3137.61
737.576	3129.28
737.765	3192.05
737.955	3180.62
738.144	3267.81
738.334	3221.31
738.524	3169.96
738.713	3235.06
738.903	3219.95
739.092	3301.13
739.282	3252.5
739.471	3288.92
739.661	3237.39
739.85	3313.53
740.04	3346.08
740.229	3373.98
740.419	3398.78
740.608	3410.4
740.797	3335.42
740.987	3428.03
741.176	3407.5
741.365	3390.64
741.555	3371.65
741.744	3469.88
741.933	3420.87
742.123	3489.45
742.312	3477.63
742.501	3478.02
742.69	3503.98
742.88	3463.3
743.069	3556.29
743.258	3493.52
743.447	3557.26
743.636	3558.81
743.825	3502.05
744.014	3545.83
744.204	3562.49
744.393	3498.95
744.582	3622.75
744.771	3618.49
744.96	3569.08
745.149	3598.92
745.338	3540.41
745.527	3576.06
745.716	3598.14
745.905	3544.09
746.094	3602.99
746.283	3605.7
746.471	3636.31
746.66	3637.67
746.849	3635.34
747.038	3651.81
747.227	3592.14
747.416	3669.25
747.604	3599.31
747.793	3602.79
747.982	3599.5
748.171	3640.38
748.359	3618.29
748.548	3645.22
748.737	3611.32
748.926	3572.57
749.114	3503.79
749.303	3594.66
749.491	3589.23
749.68	3534.4
749.869	3611.13
750.057	3569.86
750.246	3526.46
750.434	3568.31
750.623	3592.14
750.811	3538.86
751	3591.17
751.188	3551.45
751.377	3590.01
751.565	3536.92
751.754	3501.27
751.942	3505.15
752.131	3590.98
752.319	3552.23
752.507	3464.27
752.696	3577.03
752.884	3564.63
753.072	3559.98
753.261	3532.08
753.449	3585.16
753.637	3519.29
753.825	3563.46
754.014	3489.65
754.202	3520.45
754.39	3568.31
754.578	3596.21
754.766	3488.48
754.955	3474.73
755.143	3585.94
755.331	3506.11
755.519	3511.54
755.707	3517.74
755.895	3503.21
756.083	3499.14
756.271	3445.47
756.459	3490.81
756.647	3532.27
756.835	3454.97
757.023	3500.3
757.211	3439.47
757.399	3446.83
757.587	3455.74
757.775	3385.6
757.963	3432.1
758.151	3430.36
758.339	3377.85
758.526	3342.4
758.714	3362.74
758.902	3261.8
759.09	3158.73
759.278	2968.47
759.465	2723.57
759.653	2349.83
759.841	2146.01
760.028	1838.92
760.216	1572.9
760.404	1479.32
760.591	1231.13
760.779	1035.26
760.967	896.53
761.154	761.68
761.342	781.45
761.529	770.4
761.717	848.68
761.905	818.07
762.092	885.1
762.28	816.32
762.467	814.19
762.655	734.17
762.842	779.12
763.029	755.87
763.217	766.92
763.404	798.5
763.592	824.65
763.779	776.02
763.966	831.82
764.154	868.83
764.341	891.69
764.528	892.66
764.716	971.32
764.903	1076.72
765.09	1120.7
765.277	1150.73
765.465	1324.91
765.652	1405.7
765.839	1447.94
766.026	1592.47
766.213	1654.67
766.4	1729.26
766.588	1896.85
766.775	1949.36
766.962	2093.7
767.149	2105.13
767.336	2272.53
767.523	2211.88
767.71	2401.95
767.897	2474.02
768.084	2602.09
768.271	2621.46
768.458	2691.41
768.645	2756.7
768.832	2740.62
769.019	2757.67
769.206	2786.34
769.392	2872.17
769.579	2939.79
769.766	2892.9
769.953	2898.91
770.14	2965.75
770.327	2952.97
770.513	3041.12
770.7	3066.89
770.887	2969.63
771.073	3024.65
771.26	3030.85
771.447	3006.25
771.634	3041.12
771.82	3106.22
772.007	2962.46
772.193	3053.52
772.38	3070.76
772.567	3050.42
772.753	2990.36
772.94	3080.84
773.126	3068.63
773.313	3095.18
773.499	3055.65
773.686	3046.16
773.872	2986.1
774.059	3081.81
774.245	2999.27
774.432	3044.22
774.618	2973.7
774.804	3067.08
774.991	2986.87
775.177	3016.13
775.363	2999.66
775.55	3020
775.736	3004.5
775.922	3001.02
776.109	2993.85
776.295	2980.28
776.481	3012.64
776.667	2983.38
776.853	2978.73
777.04	2977.96
777.226	2979.51
777.412	3039.38
777.598	2914.8
777.784	3001.6
777.97	2914.99
778.156	2943.67
778.342	2954.71
778.528	2911.7
778.715	2886.51
778.901	2866.75
779.087	2944.25
779.272	2870.43
779.458	2857.84
779.644	2902.2
779.83	2861.32
780.016	2988.23
780.202	2871.2
780.388	2870.82
780.574	2785.37
780.76	2822.57
780.946	2874.89
781.131	2856.09
781.317	2822.96
781.503	2815.41
781.689	2831.49
781.874	2892.32
782.06	2780.34
782.246	2812.69
782.432	2818.7
782.617	2791.77
782.803	2855.32
782.989	2726.86
783.174	2752.83
783.36	2721.24
783.545	2764.84
783.731	2751.86
783.916	2690.63
784.102	2758.06
784.288	2703.23
784.473	2670.87
784.659	2679.01
784.844	2789.83
785.029	2709.62
785.215	2687.14
785.4	2640.06
785.586	2747.21
785.771	2675.13
785.956	2678.04
786.142	2653.05
786.327	2634.45
786.512	2654.4
786.698	2607.32
786.883	2552.88
787.068	2627.28
787.254	2612.75
787.439	2614.1
787.624	2560.63
787.809	2574
787.994	2545.9
788.18	2609.65
788.365	2534.08
788.55	2573.03
788.735	2523.82
788.92	2548.03
789.105	2530.02
789.29	2546.29
789.475	2475.19
789.66	2500.95
789.845	2437.79
790.03	2454.07
790.215	2496.69
790.4	2494.75
790.585	2518
790.77	2476.93
790.955	2429.46
791.14	2430.43
791.325	2535.44
791.51	2351.38
791.695	2439.34
791.879	2404.08
792.064	2398.27
792.249	2486.04
792.434	2389.36
792.618	2402.92
792.803	2456.59
792.988	2385.87
793.173	2473.05
793.357	2474.6
793.542	2402.53
793.727	2419.58
793.911	2467.24
794.096	2422.49
794.281	2499.4
794.465	2492.82
794.65	2456.78
794.834	2500.18
795.019	2495.72
795.203	2536.99
795.388	2482.74
795.572	2536.8
795.757	2509.48
795.941	2482.35
796.126	2524.98
796.31	2423.26
796.494	2484.68
796.679	2432.75
796.863	2436.63
797.048	2505.99
797.232	2458.72
797.416	2483.32
797.601	2459.49
797.785	2555.98
797.969	2524.59
798.153	2509.28
798.338	2511.03
798.522	2548.23
798.706	2532.92
798.89	2540.09
799.074	2606.93
799.258	2580.39
799.443	2518.78
799.627	2490.49
799.811	2552.1
799.995	2481.97
800.179	2462.4
800.363	2529.43
800.547	2508.7
800.731	2539.7
800.915	2446.51
801.099	2509.09
801.283	2456
801.467	2494.17
801.651	2455.23
801.835	2528.85
802.019	2503.09
802.202	2486.04
802.386	2468.02
802.57	2407.96
802.754	2465.69
802.938	2438.57
803.121	2493.79
803.305	2519.75
803.489	2452.9
803.673	2483.71
803.856	2539.32
804.04	2472.28
804.224	2466.66
804.407	2430.62
804.591	2454.07
804.775	2482.94
804.958	2496.3
805.142	2568.77
805.326	2464.92
805.509	2514.13
805.693	2511.42
805.876	2532.73
806.06	2477.32
806.243	2531.76
806.427	2553.65
806.61	2562.37
806.794	2498.05
806.977	2571.09
807.16	2507.35
807.344	2518.97
807.527	2507.54
807.71	2498.24
807.894	2510.45
808.077	2492.82
808.26	2435.85
808.444	2445.74
808.627	2507.93
808.81	2443.6
808.993	2401.17
809.177	2433.92
809.36	2424.04
809.543	2465.3
809.726	2347.12
809.909	2328.52
810.092	2338.21
810.276	2357
810.459	2310.69
810.642	2324.06
810.825	2264.58
811.008	2278.14
811.191	2221.18
811.374	2232.03
811.557	2199.1
811.74	2315.54
811.923	2183.98
812.106	2196.38
812.289	2127.8
812.472	2181.66
812.654	2145.62
812.837	2089.43
813.02	2063.09
813.203	2039.84
813.386	1936.18
813.569	1934.24
813.751	1856.16
813.934	1946.64
814.117	1885.61
814.3	1871.86
814.482	1797.26
814.665	1753.67
814.848	1706.4
815.03	1656.99
815.213	1689.35
815.396	1659.7
815.578	1639.55
815.761	1619.99
815.943	1687.22
816.126	1577.94
816.309	1544.04
816.491	1504.71
816.674	1442.71
816.856	1486.49
817.039	1488.43
817.221	1557.4
817.403	1498.31
817.586	1531.64
817.768	1521.37
817.951	1427.98
818.133	1463.82
818.315	1504.51
818.498	1529.31
818.68	1564.96
818.862	1555.85
819.045	1542.68
819.227	1572.13
819.409	1522.34
819.591	1529.12
819.774	1551.2
819.956	1541.52
820.138	1600.8
820.32	1555.47
820.502	1651.57
820.684	1689.93
820.866	1745.92
821.048	1777.89
821.231	1767.43
821.413	1741.66
821.595	1730.42
821.777	1760.45
821.959	1721.51
822.141	1822.06
822.323	1635.48
822.505	1598.67
822.686	1543.84
822.868	1476.61
823.05	1376.64
823.232	1375.48
823.414	1278.6
823.596	1388.07
823.778	1356.68
823.96	1378.58
824.141	1383.03
824.323	1408.22
824.505	1492.69
824.687	1521.76
824.868	1576.59
825.05	1652.34
825.232	1691.87
825.413	1751.15
825.595	1711.82
825.777	1637.23
825.958	1671.72
826.14	1655.25
826.321	1731.97
826.503	1661.25
826.685	1698.84
826.866	1722.09
827.048	1727.9
827.229	1671.91
827.411	1602.74
827.592	1584.72
827.773	1604.49
827.955	1517.49
828.136	1568.25
828.318	1500.44
828.499	1559.92
828.68	1488.04
828.862	1539.39
829.043	1530.28
829.224	1517.88
829.406	1504.51
829.587	1494.82
829.768	1486.88
829.949	1503.54
830.131	1478.74
830.312	1580.46
830.493	1516.33
830.674	1544.81
830.855	1506.06
831.036	1506.26
831.218	1597.12
831.399	1588.4
831.58	1545.2
831.761	1554.69
831.942	1557.79
832.123	1527.37
832.304	1473.51
832.485	1498.31
832.666	1533.38
832.847	1533.19
833.028	1544.04
833.209	1545.39
833.389	1522.14
833.57	1513.04
833.751	1493.08
833.932	1540.55
834.113	1531.25
834.294	1541.71
834.475	1550.04
834.655	1591.7
834.836	1595.38
835.017	1574.07
835.198	1513.23
835.378	1523.11
835.559	1599.45
835.74	1550.62
835.92	1578.33
836.101	1514.01
836.281	1599.06
836.462	1559.92
836.643	1602.16
836.823	1604.29
837.004	1620.57
837.184	1658.15
837.365	1646.33
837.545	1574.84
837.726	1624.44
837.906	1640.13
838.087	1594.22
838.267	1599.45
838.448	1539.39
838.628	1594.6
838.808	1644.4
838.989	1624.83
839.169	1571.16
839.349	1648.27
839.53	1650.21
839.71	1608.36
839.89	1578.91
840.07	1679.66
840.251	1608.94
840.431	1622.31
840.611	1612.24
840.791	1586.27
840.971	1650.21
841.151	1609.14
841.332	1590.54
841.512	1627.54
841.692	1554.69
841.872	1595.38
842.052	1598.48
842.232	1635.1
842.412	1520.98
842.592	1587.24
842.772	1576.39
842.952	1594.8
843.132	1570.77
843.312	1579.49
843.492	1530.86
843.672	1629.87
843.851	1501.99
844.031	1576.39
844.211	1566.12
844.391	1547.33
844.571	1543.07
844.751	1558.76
844.93	1562.44
845.11	1557.4
845.29	1552.75
845.47	1582.01
845.649	1568.06
845.829	1572.32
846.009	1570.19
846.188	1556.82
846.368	1560.89
846.547	1556.24
846.727	1621.92
846.907	1503.74
847.086	1570.39
847.266	1574.07
847.445	1526.02
847.625	1528.92
847.804	1523.31
847.984	1566.12
848.163	1473.12
848.343	1481.84
848.522	1546.94
848.701	1531.44
848.881	1512.84
849.06	1499.67
849.239	1507.22
849.419	1502.57
849.598	1429.34
849.777	1478.16
849.957	1433.6
850.136	1392.33
850.315	1349.13
850.494	1379.16
850.674	1376.83
850.853	1458.01
851.032	1397.18
851.211	1452.59
851.39	1422.36
851.569	1362.88
851.748	1380.32
851.927	1440.58
852.107	1409.77
852.286	1405.89
852.465	1347.96
852.644	1418.49
852.823	1458.21
853.002	1390.78
853.181	1416.94
853.359	1407.64
853.538	1336.73
853.717	1406.67
853.896	1285
854.075	1238.3
854.254	1242.37
854.433	1198.39
854.611	1197.03
854.79	1188.9
854.969	1240.63
855.148	1267.75
855.327	1197.42
855.505	1246.44
855.684	1234.82
855.863	1281.9
856.041	1264.85
856.22	1276.86
856.399	1275.7
856.577	1389.43
856.756	1379.93
856.934	1427.01
857.113	1429.92
857.291	1344.48
857.47	1334.01
857.648	1354.94
857.827	1355.71
858.005	1415.97
858.184	1326.46
858.362	1403.38
858.541	1338.28
858.719	1319.1
858.898	1326.46
859.076	1337.11
859.254	1375.28
859.433	1314.83
859.611	1308.63
859.789	1283.06
859.967	1363.85
860.146	1344.09
860.324	1291.97
860.502	1322
860.68	1253.22
860.859	1326.26
861.037	1310.76
861.215	1296.81
861.393	1300.11
861.571	1292.16
861.749	1274.53
861.927	1313.09
862.105	1318.51
862.283	1275.7
862.461	1274.34
862.639	1264.07
862.817	1244.5
862.995	1249.35
863.173	1272.21
863.351	1257.87
863.529	1296.81
863.707	1322.97
863.885	1289.84
864.063	1179.4
864.241	1235.4
864.418	1323.36
864.596	1251.09
864.774	1212.34
864.952	1244.7
865.129	1291
865.307	1216.6
865.485	1158.67
865.663	1225.13
865.84	1170.49
866.018	1208.27
866.196	1040.49
866.373	1081.56
866.551	1071.68
866.728	1020.14
866.906	1073.23
867.084	1083.89
867.261	1112.37
867.439	1132.13
867.616	1148.99
867.794	1110.43
867.971	1141.24
868.149	1140.07
868.326	1177.47
868.503	1139.69
868.681	1159.64
868.858	1098.61
869.035	1132.71
869.213	1160.61
869.39	1164.1
869.567	1164.49
869.745	1117.99
869.922	1145.11
870.099	1172.04
870.276	1185.22
870.454	1180.18
870.631	1171.65
870.808	1120.5
870.985	1175.53
871.162	1240.05
871.339	1149.37
871.517	1102.49
871.694	1107.91
871.871	1127.09
872.048	1130
872.225	1109.07
872.402	1129.61
872.579	1086.79
872.756	1151.12
872.933	1069.94
873.11	1065.48
873.287	1088.15
873.463	1102.1
873.64	1085.44
873.817	1120.31
873.994	1092.22
874.171	1076.72
874.348	1077.49
874.524	1026.92
874.701	1069.16
874.878	1012.98
875.055	1066.26
875.231	1101.52
875.408	1087.57
875.585	1006.78
875.762	1070.13
875.938	1054.44
876.115	1036.61
876.291	1029.83
876.468	1051.92
876.645	1001.16
876.821	1011.43
876.998	1038.55
877.174	1064.71
877.351	1006.78
877.527	998.06
877.704	1027.7
877.88	1023.24
878.057	1016.66
878.233	1041.46
878.409	1003.09
878.586	1029.06
878.762	1020.92
878.938	995.34
879.115	948.46
879.291	1001.16
879.467	956.21
879.644	976.94
879.82	1005.81
879.996	969.19
880.172	928.89
880.349	978.68
880.525	1003.48
880.701	965.12
880.877	916.3
881.053	985.85
881.229	957.95
881.405	1009.29
881.581	936.06
881.757	960.08
881.933	968.41
882.109	988.76
882.285	945.16
882.461	919.98
882.637	977.71
882.813	919.98
882.989	959.89
883.165	1001.35
883.341	952.14
883.517	1016.27
883.693	981.2
883.869	1012.39
884.044	942.84
884.22	971.13
884.396	1010.46
884.572	960.86
884.747	993.6
884.923	982.56
885.099	957.37
885.275	978.88
885.45	941.48
885.626	942.64
885.801	944.19
885.977	966.09
886.153	908.16
886.328	973.84
886.504	929.08
886.679	961.83
886.855	911.45
887.03	954.85
887.206	956.4
887.381	958.92
887.557	956.4
887.732	956.21
887.908	967.44
888.083	997.09
888.258	952.53
888.434	967.06
888.609	922.69
888.784	1004.84
888.96	925.01
889.135	940.13
889.31	938.19
889.485	971.51
889.661	917.07
889.836	984.11
890.011	947.49
890.186	944.58
890.361	954.66
890.537	936.44
890.712	954.08
890.887	952.72
891.062	955.24
891.237	999.22
891.412	929.28
891.587	930.25
891.762	991.66
891.937	998.64
892.112	918.62
892.287	940.9
892.462	913
892.637	871.54
892.812	856.23
892.987	904.48
893.161	867.28
893.336	854.49
893.511	866.31
893.686	891.11
893.861	884.71
894.035	893.24
894.21	840.54
894.385	784.55
894.56	835.31
894.734	795.2
894.909	808.96
895.084	803.92
895.258	777.57
895.433	781.83
895.608	783.38
895.782	717.7
895.957	731.27
896.131	749.87
896.306	679.34
896.48	667.91
896.655	671.01
896.829	611.53
897.004	634.39
897.178	638.07
897.353	625.29
897.527	671.79
897.701	639.04
897.876	600.1
898.05	689.22
898.224	655.51
898.399	678.76
898.573	618.12
898.747	544.49
898.921	559.61
899.096	494.31
899.27	528.99
899.444	521.24
899.618	568.33
899.792	581.5
899.967	548.56
900.141	574.33
900.315	512.91
900.489	531.9
900.663	564.26
900.837	527.25
901.011	516.21
901.185	572.59
901.359	560.96
901.533	563.68
901.707	547.98
901.881	560.38
902.055	522.99
902.229	516.98
902.403	589.64
902.576	557.09
902.75	545.85
902.924	654.35
903.098	619.67
903.272	626.64
903.446	678.18
903.619	664.42
903.793	727.59
903.967	683.02
904.14	693.29
904.314	687.87
904.488	663.84
904.661	714.6
904.835	677.21
905.009	722.55
905.182	758
905.356	712.86
905.529	723.71
905.703	707.05
905.876	658.81
906.05	668.88
906.223	627.22
906.397	583.24
906.57	563.68
906.744	536.74
906.917	547.4
907.09	541.98
907.264	532.29
907.437	517.18
907.61	494.31
907.784	507.88
907.957	519.89
908.13	484.63
908.304	528.41
908.477	494.9
908.65	510.2
908.823	477.26
908.996	538.68
909.17	491.41
909.343	477.07
909.516	485.79
909.689	476.88
909.862	436.96
910.035	475.13
910.208	459.25
910.381	445.49
910.554	533.06
910.727	489.28
910.9	483.27
911.073	457.89
911.246	541.39
911.419	530.54
911.592	518.53
911.765	465.83
911.938	463.51
912.11	480.95
912.283	486.18
912.456	532.48
912.629	477.85
912.802	449.56
912.974	434.64
913.147	413.33
913.32	365.67
913.493	404.03
913.665	424.18
913.838	400.93
914.01	438.13
914.183	422.82
914.356	431.15
914.528	449.36
914.701	505.16
914.873	446.07
915.046	417.2
915.218	378.26
915.391	362.57
915.563	339.12
915.736	422.05
915.908	439.1
916.081	407.52
916.253	382.52
916.425	406.93
916.598	432.7
916.77	443.94
916.942	397.44
917.115	358.3
917.287	406.16
917.459	390.27
917.632	337.57
917.804	288.36
917.976	405.19
918.148	393.76
918.32	397.63
918.493	418.75
918.665	442.78
918.837	406.55
919.009	471.84
919.181	472.61
919.353	447.81
919.525	436
919.697	461.38
919.869	436.19
920.041	506.91
920.213	546.04
920.385	463.12
920.557	448.2
920.729	474.55
920.901	465.83
921.073	447.81
921.244	436.96
921.416	499.35
921.588	427.08
921.76	413.71
921.932	473.58
922.103	446.46
922.275	481.33
922.447	446.65
922.619	415.46
922.79	417.4
922.962	400.73
923.134	447.81
923.305	391.63
923.477	394.53
923.648	361.21
923.82	405
923.991	350.17
924.163	343.97
924.335	366.05
924.506	355.59
924.677	442.97
924.849	339.51
925.02	400.73
925.192	415.65
925.363	392.4
925.535	351.52
925.706	352.88
925.877	413.13
926.049	358.3
926.22	374.58
926.391	387.17
926.562	383.3
926.734	355.2
926.905	421.85
927.076	316.07
927.247	336.41
927.419	307.93
927.59	309.09
927.761	300.57
927.932	298.24
928.103	301.34
928.274	262.79
928.445	247.87
928.616	280.8
928.787	274.22
928.958	311.42
929.129	292.43
929.3	270.15
929.471	220.55
929.642	181.22
929.813	147.51
929.984	227.14
930.155	148.47
930.326	227.33
930.496	174.05
930.667	128.13
930.838	161.07
931.009	137.04
931.18	178.31
931.35	139.18
931.521	144.41
931.692	63.23
931.863	50.44
932.033	99.46
932.204	116.31
932.374	134.14
932.545	85.51
932.716	144.21
932.886	118.25
933.057	25.83
933.227	65.74
933.398	147.31
933.568	55.28
933.739	26.41
933.909	49.47
934.08	58.96
934.25	15.18
934.421	14.6
934.591	67.49
934.761	25.45
934.932	-14.08
935.102	57.61
935.272	35.71
935.443	35.71
935.613	50.44
935.783	62.84
935.953	25.25
936.123	136.85
936.294	21.76
936.464	25.25
936.634	55.09
936.804	0.06
936.974	9.17
937.144	29.51
937.314	65.94
937.484	33.58
937.655	17.7
937.825	82.79
937.995	19.83
938.165	72.14
938.334	39.98
938.504	83.18
938.674	53.54
938.844	54.9
939.014	107.21
939.184	95.97
939.354	139.76
939.524	100.43
939.694	81.44
939.863	71.75
940.033	144.21
940.203	124.06
940.373	113.21
940.542	134.14
940.712	96.74
940.882	134.53
941.051	115.93
941.221	138.4
941.391	145.96
941.56	51.8
941.73	87.44
941.899	187.81
942.069	58.77
942.238	73.11
942.408	71.75
942.577	109.14
942.747	71.36
942.916	35.91
943.086	57.03
943.255	119.22
943.425	83.96
943.594	59.16
943.763	6.26
943.933	27.58
944.102	4.33
944.271	47.73
944.441	90.93
944.61	29.51
944.779	58.96
944.948	133.17
945.117	44.43
945.287	44.82
945.456	13.05
945.625	25.64
945.794	75.63
945.963	51.21
946.132	76.59
946.301	25.64
946.47	66.13
946.639	6.07
946.808	44.43
946.977	90.54
947.146	107.4
947.315	20.8
947.484	79.31
947.653	38.62
947.822	50.63
947.991	31.45
948.16	144.79
948.329	88.8
948.498	67.49
948.666	70.2
948.835	78.14
949.004	40.56
949.173	39.98
949.341	50.25
949.51	80.47
949.679	117.67
949.847	98.29
950.016	143.44
950.185	100.23
950.353	48.11
950.522	32.42
950.69	113.99
950.859	34.36
951.028	109.73
951.196	97.71
951.365	57.22
951.533	73.3
951.701	83.96
951.87	79.89
952.038	39.01
952.207	75.24
952.375	109.53
952.543	40.17
952.712	53.35
952.88	68.26
953.048	104.3
953.217	70.2
953.385	54.9
953.553	119.03
953.721	52.57
953.89	66.71
954.058	12.66
954.226	9.17
954.394	77.76
954.562	18.86
954.73	58.38
954.898	65.94
955.067	100.04
955.235	65.94
955.403	87.44
955.571	123.09
955.739	105.66
955.907	42.11
956.075	40.56
956.243	33.39
956.41	91.32
956.578	60.32
956.746	41.72
956.914	67.29
957.082	106.43
957.25	103.14
957.418	45.98
957.585	82.41
957.753	106.04
957.921	53.93
958.089	61.09
958.256	85.31
958.424	77.56
958.592	80.08
958.759	56.83
958.927	90.54
959.095	39.4
959.262	51.41
959.43	75.82
959.597	33.39
959.765	90.35
959.932	27.77
960.1	89.96
960.267	98.88
960.435	61.48
960.602	105.85
960.77	67.88
960.937	56.06
961.104	65.55
961.272	41.53
961.439	55.67
961.606	97.13
961.774	96.55
961.941	68.07
962.108	68.26
962.275	112.05
962.443	118.06
962.61	101.01
962.777	139.56
962.944	102.36
963.111	89.19
963.278	111.08
963.446	73.88
963.613	84.15
963.78	109.73
963.947	131.81
964.114	72.91
964.281	154.67
964.448	85.7
964.615	81.83
964.782	104.3
964.949	115.15
965.116	102.75
965.282	130.46
965.449	87.64
965.616	51.99
965.783	106.82
965.95	103.14
966.117	56.25
966.283	90.54
966.45	71.75
966.617	127.74
966.784	105.66
966.95	133.56
967.117	123.09
967.284	62.45
967.45	76.98
967.617	145.96
967.784	130.65
967.95	168.24
968.117	92.68
968.283	135.69
968.45	184.12
968.616	120.58
968.783	160.49
968.949	109.53
969.116	142.28
969.282	113.21
969.449	122.9
969.615	115.93
969.781	88.8
969.948	92.29
970.114	69.04
970.28	151.38
970.447	98.1
970.613	171.14
970.779	114.76
970.945	148.28
971.112	93.45
971.278	95.39
971.444	104.69
971.61	152.93
971.776	79.31
971.942	133.75
972.108	151.96
972.275	99.65
972.441	136.85
972.607	159.52
972.773	70.59
972.939	124.06
973.105	100.62
973.271	100.04
973.437	93.84
973.602	67.88
973.768	122.9
973.934	109.92
974.1	100.43
974.266	38.23
974.432	126.97
974.598	96.74
974.763	125.42
974.929	103.53
975.095	159.52
975.261	95.58
975.426	55.67
975.592	93.45
975.758	167.66
975.923	20.8
976.089	55.86
976.255	143.24
976.42	102.36
976.586	118.64
976.751	107.79
976.917	175.21
977.082	114.76
977.248	66.91
977.413	53.93
977.579	90.93
977.744	105.85
977.91	68.46
978.075	65.94
978.24	119.22
978.406	69.43
978.571	83.57
978.736	74.08
978.902	129.1
979.067	58
979.232	55.28
979.397	108.56
979.563	170.56
979.728	52.38
979.893	81.05
980.058	75.04
980.223	134.53
980.388	94.42
980.554	74.46
980.719	69.81
980.884	114.57
981.049	131.81
981.214	81.24
981.379	109.14
981.544	104.49
981.709	75.04
981.874	95.19
982.039	75.04
982.204	111.47
982.368	90.93
982.533	91.13
982.698	126.78
982.863	137.43
983.028	88.41
983.193	107.98
983.357	74.66
983.522	102.36
983.687	71.17
983.852	74.85
984.016	88.99
984.181	102.94
984.346	101.59
984.51	127.55
984.675	97.33
984.839	111.08
985.004	93.84
985.168	112.63
985.333	95.39
985.498	99.65
985.662	131.43
985.827	119.8
985.991	94.61
986.155	80.08
986.32	125.81
986.484	130.65
986.649	115.54
986.813	54.9
986.977	113.99
987.142	128.33
987.306	58.58
987.47	59.93
987.634	90.54
987.799	97.33
987.963	67.88
988.127	132.39
988.291	164.17
988.455	86.28
988.62	79.11
988.784	91.32
988.948	115.34
989.112	79.89
989.276	100.62
989.44	94.61
989.604	46.56
989.768	97.13
989.932	153.32
990.096	68.26
990.26	70.39
990.424	53.15
990.588	78.73
990.752	137.24
990.915	113.41
991.079	61.87
991.243	63.42
991.407	112.83
991.571	96.36
991.734	141.5
991.898	108.76
992.062	147.51
992.226	78.53
992.389	79.5
992.553	75.24
992.717	64
992.88	64.78
993.044	92.87
993.207	90.74
993.371	92.68
993.535	118.83
993.698	89.19
993.862	110.89
994.025	143.24
994.189	89.96
994.352	77.76
994.515	90.16
994.679	116.51
994.842	78.92
995.006	101.01
995.169	69.81
995.332	59.93
995.496	108.37
995.659	53.54
995.822	69.23
995.985	43.66
996.149	109.92
996.312	92.48
996.475	116.7
996.638	59.16
996.801	146.92
996.964	124.45
997.128	52.76
997.291	76.79
997.454	88.8
997.617	32.23
997.78	103.14
997.943	45.6
998.106	110.11
998.269	28.55
998.432	78.73
998.595	74.46
998.758	32.42
998.92	34.94
999.083	36.49
999.246	57.8
999.409	33.78
999.572	1.61
999.735	38.23
999.897	91.13
1000.06	42.11
1000.223	57.8
1000.386	77.76
1000.548	101.2
1000.711	59.54
1000.874	77.95
1001.036	29.9
1001.199	110.89
1001.361	56.25
1001.524	37.07
1001.687	96.94
1001.849	58
1002.012	84.34
1002.174	74.85
1002.337	73.3
1002.499	78.73
1002.661	86.48
1002.824	22.35
1002.986	39.98
1003.149	64.78
1003.311	15.76
1003.473	104.3
1003.636	56.45
1003.798	81.24
1003.96	68.84
1004.123	42.88
1004.285	41.72
1004.447	62.64
1004.609	74.46
1004.771	91.71
1004.933	25.25
1005.096	21.96
1005.258	13.24
1005.42	52.57
1005.582	104.69
1005.744	63.61
1005.906	8.78
1006.068	75.04
1006.23	2
1006.392	14.21
1006.554	16.73
1006.716	70.59
1006.878	74.08
1007.04	15.56
1007.202	35.52
1007.363	57.41
1007.525	58.77
1007.687	53.54
1007.849	101.98
1008.011	0.45
1008.172	-2.84
1008.334	21.38
1008.496	73.11
1008.658	6.85
1008.819	61.09
1008.981	13.05
1009.143	16.53
1009.304	23.7
1009.466	28.74
1009.627	116.89
1009.789	121.35
1009.95	81.44
1010.112	23.51
1010.273	58.96
1010.435	10.33
1010.596	38.04
1010.758	33.2
1010.919	59.35
1011.081	-19.5
1011.242	49.47
1011.403	68.26
1011.565	43.27
1011.726	56.45
1011.887	25.64
1012.049	35.91
1012.21	79.5
1012.371	83.18
1012.532	-16.6
1012.693	10.14
1012.855	23.51
1013.016	46.37
1013.177	75.24
1013.338	56.25
1013.499	95
1013.66	51.99
1013.821	52.76
1013.982	51.41
1014.143	52.96
1014.304	8.4
1014.465	47.15
1014.626	74.66
1014.787	22.54
1014.948	94.23
1015.109	-27.84
1015.27	82.6
1015.431	31.45
1015.592	14.4
1015.752	54.51
1015.913	40.95
1016.074	44.82
1016.235	57.8
1016.395	33
1016.556	28.55
1016.717	19.44
1016.877	58
1017.038	18.08
1017.199	45.01
1017.359	50.44
1017.52	44.05
1017.681	23.12
1017.841	35.13
1018.002	24.86
1018.162	16.73
1018.323	93.64
1018.483	48.7
1018.644	39.4
1018.804	-2.26
1018.964	-12.72
1019.125	13.24
1019.285	35.91
1019.446	2.97
1019.606	9.17
1019.766	-19.5
1019.926	60.71
1020.087	32.61
1020.247	-29
1020.407	58.77
1020.567	56.25
1020.728	13.24
1020.888	-9.82
1021.048	11.3
1021.208	-15.24
1021.368	-4.39
1021.528	64.19
1021.688	59.54
1021.848	57.41
1022.008	18.47
1022.168	61.87
1022.328	31.65
1022.488	35.52
1022.648	20.41
1022.808	30.87
1022.968	46.76
1023.128	8.01
1023.288	19.44
1023.448	-6.91
1023.608	43.66
1023.767	40.95
1023.927	0.84
1024.087	20.21
1024.247	-4.2
1024.406	-9.24
1024.566	-17.37
1024.726	9.95
1024.885	14.01
1025.045	42.11
1025.205	38.81
1025.364	25.06
1025.524	42.69
1025.683	11.69
1025.843	41.33
1026.003	5.49
1026.162	67.49
1026.321	47.73
1026.481	12.08
1026.64	27.58
1026.8	39.4
1026.959	24.67
1027.119	40.36
1027.278	3.75
1027.437	-0.32
1027.597	37.07
1027.756	61.87
1027.915	29.13
1028.074	56.25
1028.234	4.91
1028.393	8.98
1028.552	8.78
1028.711	-25.32
1028.87	71.94
1029.03	-11.75
1029.189	20.99
1029.348	-15.82
1029.507	0.84
1029.666	-15.82
1029.825	-20.67
1029.984	10.91
1030.143	14.79
1030.302	-16.4
1030.461	-22.99
1030.62	26.41
1030.779	34.16
1030.938	-13.3
1031.097	-25.32
1031.255	23.7
1031.414	29.13
1031.573	56.06
1031.732	6.26
1031.891	32.23
1032.049	60.71
1032.208	32.23
1032.367	-22.99
1032.525	15.95
1032.684	16.15
1032.843	23.51
1033.001	-32.29
1033.16	139.18
1033.319	37.46
1033.477	18.28
1033.636	-1.1
1033.794	-25.51
1033.953	56.06
1034.111	38.81
1034.27	22.73
1034.428	37.26
1034.587	-21.05
1034.745	24.09
1034.903	16.92
1035.062	46.95
1035.22	2
1035.378	31.06
1035.537	2
1035.695	62.84
1035.853	-6.72
1036.011	6.07
1036.17	33.58
1036.328	-37.52
1036.486	9.95
1036.644	17.31
1036.802	-84.41
1036.96	-12.53
1037.119	-6.14
1037.277	-8.65
1037.435	-28.42
1037.593	-29
1037.751	-3.23
1037.909	16.15
1038.067	16.15
