Data from oakcork_FLMT105791__167__17-31-40-058.txt Node

Date: Mon Mar 20 17:31:40 GMT 2023
User: antho
Spectrometer: FLMT10579
Trigger mode: 0
Integration Time (sec): 1.000000E-1
Scans to average: 10
Electric dark correction enabled: true
Nonlinearity correction enabled: false
Boxcar width: 0
XAxis mode: Wavelengths
Number of Pixels in Spectrum: 3648
>>>>>Begin Spectral Data<<<<<
345.248	-127.63
345.464	-127.63
345.681	-127.63
345.898	-186.14
346.114	-147.01
346.331	-69.31
346.548	47.32
346.764	3.15
346.981	-11.38
347.197	-11.58
347.414	15.74
347.631	-17.39
347.847	51.39
348.064	15.74
348.28	23.88
348.497	-44.71
348.713	-2.86
348.93	54.69
349.146	8.57
349.363	-1.11
349.579	-14.68
349.796	5.47
350.012	-10.61
350.229	22.52
350.445	-0.15
350.661	-2.86
350.878	24.07
351.094	12.64
351.311	10.32
351.527	29.3
351.743	0.24
351.96	15.55
352.176	48.29
352.392	35.89
352.609	23.49
352.825	1.21
353.041	13.8
353.257	13.22
353.474	13.22
353.69	1.4
353.906	9.93
354.122	-26.11
354.339	53.52
354.555	-1.89
354.771	12.64
354.987	47.71
355.203	48.68
355.42	10.9
355.636	-8.09
355.852	-23.2
356.068	-18.55
356.284	-33.86
356.5	53.52
356.716	32.4
356.932	24.07
357.148	41.51
357.364	20.39
357.58	50.62
357.796	48.1
358.012	27.75
358.228	18.26
358.444	-44.51
358.66	39.77
358.876	39.77
359.092	-14.1
359.308	11.48
359.524	6.64
359.74	12.06
359.956	-5.18
360.172	30.47
360.388	31.05
360.604	23.1
360.819	70.18
361.035	21.94
361.251	33.37
361.467	-25.33
361.683	43.25
361.898	15.16
362.114	41.12
362.33	44.8
362.546	49.26
362.762	-13.9
362.977	-2.08
363.193	-13.13
363.409	31.82
363.624	-38.89
363.84	3.34
364.056	-1.5
364.271	14.58
364.487	52.94
364.703	-11.96
364.918	-10.61
365.134	-27.85
365.35	22.91
365.565	91.3
365.781	15.74
365.996	16.52
366.212	49.07
366.427	43.06
366.643	13.61
366.858	12.64
367.074	-6.15
367.289	47.32
367.505	93.82
367.72	-53.04
367.936	6.64
368.151	33.76
368.367	23.69
368.582	15.74
368.798	0.05
369.013	53.52
369.228	-4.6
369.444	-3.05
369.659	67.47
369.874	19.62
370.09	45.39
370.305	-56.14
370.52	-20.3
370.736	61.47
370.951	1.99
371.166	61.85
371.381	65.34
371.597	54.3
371.812	19.81
372.027	-4.6
372.242	19.62
372.458	48.87
372.673	-1.5
372.888	5.86
373.103	34.54
373.318	102.15
373.533	50.42
373.749	41.9
373.964	-28.82
374.179	78.32
374.394	-10.8
374.609	68.05
374.824	-22.81
375.039	57.01
375.254	4.7
375.469	67.67
375.684	11.67
375.899	52.75
376.114	18.26
376.329	32.6
376.544	40.93
376.759	42.09
376.974	-8.67
377.189	30.27
377.404	19.81
377.619	47.52
377.834	-22.81
378.049	-22.62
378.264	-17
378.478	21.75
378.693	-20.88
378.908	36.09
379.123	3.54
379.338	62.05
379.553	11.29
379.767	27.56
379.982	45.97
380.197	49.45
380.412	10.12
380.626	36.86
380.841	69.99
381.056	35.7
381.271	66.89
381.485	1.02
381.7	-21.07
381.915	18.45
382.129	3.73
382.344	27.95
382.559	-4.21
382.773	35.12
382.988	-27.27
383.202	37.64
383.417	-30.37
383.632	76.38
383.846	19.04
384.061	23.69
384.275	20.2
384.49	7.8
384.704	51.78
384.919	38.99
385.133	4.31
385.348	45.97
385.562	-15.06
385.777	54.3
385.991	20
386.206	3.92
386.42	5.67
386.634	50.04
386.849	56.62
387.063	36.67
387.277	2.18
387.492	-22.04
387.706	-3.25
387.92	11.67
388.135	41.12
388.349	33.57
388.563	30.27
388.778	25.04
388.992	52.75
389.206	22.91
389.42	107.58
389.635	13.03
389.849	53.52
390.063	61.27
390.277	27.75
390.491	87.23
390.706	40.35
390.92	63.99
391.134	15.74
391.348	47.13
391.562	-9.64
391.776	0.05
391.99	-3.25
392.205	52.75
392.419	-15.06
392.633	-5.96
392.847	69.02
393.061	9.35
393.275	81.03
393.489	23.88
393.703	31.63
393.917	60.89
394.131	12.84
394.345	34.73
394.559	58.56
394.773	3.34
394.986	45.77
395.2	12.45
395.414	81.03
395.628	-23.01
395.842	7.22
396.056	13.8
396.27	-37.93
396.484	40.54
396.697	20.59
396.911	79.87
397.125	20.2
397.339	50.42
397.553	48.49
397.766	68.25
397.98	71.93
398.194	65.73
398.408	11.48
398.621	40.35
398.835	61.85
399.049	-3.44
399.262	53.14
399.476	46.35
399.69	47.52
399.903	98.86
400.117	12.64
400.331	52.94
400.544	7.6
400.758	107.97
400.971	8.77
401.185	77.55
401.398	1.4
401.612	45.77
401.826	32.4
402.039	53.91
402.253	-12.35
402.466	36.86
402.68	26.98
402.893	31.24
403.106	65.34
403.32	13.8
403.533	50.04
403.747	45.19
403.96	37.64
404.174	50.42
404.387	-8.67
404.6	19.42
404.814	44.61
405.027	43.84
405.24	23.1
405.454	14.39
405.667	70.57
405.88	-40.06
406.094	41.9
406.307	83.94
406.52	30.47
406.733	8.77
406.947	-13.9
407.16	86.65
407.373	55.27
407.586	11.87
407.799	5.67
408.012	58.17
408.226	58.37
408.439	71.35
408.652	-24.17
408.865	27.17
409.078	81.42
409.291	34.92
409.504	-27.08
409.717	30.47
409.93	30.08
410.143	24.46
410.357	-2.66
410.57	-1.11
410.783	26.79
410.996	53.33
411.209	19.04
411.421	56.82
411.634	32.79
411.847	6.25
412.06	31.05
412.273	-12.16
412.486	45.77
412.699	119.2
412.912	31.82
413.125	69.99
413.338	15.35
413.55	67.28
413.763	39.19
413.976	43.64
414.189	10.9
414.402	36.67
414.615	58.75
414.827	3.15
415.04	67.28
415.253	32.02
415.466	75.61
415.678	110.68
415.891	32.21
416.104	40.15
416.316	21.36
416.529	35.7
416.742	37.83
416.954	84.52
417.167	40.35
417.38	27.37
417.592	82.78
417.805	32.02
418.017	-23.2
418.23	45.19
418.442	2.57
418.655	7.41
418.868	33.18
419.08	85.88
419.293	63.99
419.505	42.67
419.718	43.84
419.93	88.4
420.142	20.2
420.355	76
420.567	82
420.78	69.22
420.992	26.59
421.205	96.15
421.417	3.54
421.629	41.12
421.842	0.05
422.054	-9.64
422.266	64.57
422.479	69.22
422.691	11.48
422.903	76.77
423.115	31.44
423.328	58.56
423.54	43.84
423.752	46.94
423.964	32.6
424.177	20
424.389	23.49
424.601	133.35
424.813	31.44
425.025	65.92
425.238	63.02
425.45	9.54
425.662	18.45
425.874	304.81
426.086	45.19
426.298	42.48
426.51	67.08
426.722	53.14
426.934	34.73
427.146	77.74
427.358	18.07
427.57	80.45
427.782	28.14
427.994	44.8
428.206	15.16
428.418	-23.59
428.63	60.89
428.842	81.62
429.054	61.85
429.266	70.96
429.478	9.54
429.69	20.39
429.902	-10.61
430.114	72.32
430.325	53.72
430.537	4.31
430.749	57.01
430.961	-1.5
431.173	18.45
431.384	58.37
431.596	-1.5
431.808	32.4
432.02	50.62
432.231	57.01
432.443	57.79
432.655	67.47
432.867	-9.45
433.078	42.87
433.29	92.08
433.502	47.52
433.713	51.39
433.925	47.32
434.136	83.75
434.348	1.6
434.56	-2.08
434.771	136.06
434.983	12.84
435.194	9.15
435.406	14.58
435.617	70.38
435.829	78.52
436.04	73.48
436.252	65.92
436.463	101.96
436.675	54.3
436.886	34.92
437.098	54.88
437.309	69.99
437.521	40.54
437.732	50.23
437.943	55.65
438.155	76.77
438.366	-11.96
438.578	87.04
438.789	57.98
439	59.92
439.211	75.03
439.423	88.4
439.634	86.85
439.845	62.05
440.057	45.19
440.268	72.7
440.479	33.76
440.69	48.49
440.902	31.63
441.113	37.44
441.324	37.05
441.535	47.32
441.746	109.13
441.957	-3.63
442.168	35.12
442.38	48.1
442.591	95.37
442.802	14.97
443.013	40.15
443.224	55.85
443.435	27.75
443.646	30.47
443.857	58.17
444.068	37.83
444.279	11.48
444.49	112.23
444.701	51.78
444.912	143.62
445.123	60.89
445.334	88.98
445.545	49.26
445.756	48.29
445.967	40.93
446.178	50.62
446.388	107.77
446.599	76.77
446.81	53.33
447.021	35.89
447.232	92.08
447.443	91.88
447.653	20.39
447.864	84.13
448.075	29.89
448.286	75.22
448.496	72.51
448.707	87.62
448.918	62.05
449.129	143.62
449.339	41.51
449.55	50.81
449.761	29.69
449.971	137.61
450.182	50.62
450.393	64.18
450.603	36.47
450.814	76.58
451.024	59.92
451.235	77.35
451.446	76.77
451.656	123.85
451.867	51
452.077	74.64
452.288	100.41
452.498	127.73
452.709	63.21
452.919	80.84
453.13	59.72
453.34	109.71
453.55	51.2
453.761	122.3
453.971	74.06
454.182	93.05
454.392	100.41
454.602	115.52
454.813	78.13
455.023	115.91
455.233	25.62
455.444	83.36
455.654	20.59
455.864	67.28
456.075	64.95
456.285	65.92
456.495	54.69
456.705	107.97
456.916	107.97
457.126	109.32
457.336	80.84
457.546	2.95
457.756	40.54
457.967	122.5
458.177	82.39
458.387	100.22
458.597	44.61
458.807	70.96
459.017	73.87
459.227	79.48
459.437	52.55
459.647	88.4
459.857	105.83
460.068	52.55
460.278	124.05
460.488	73.87
460.698	131.99
460.908	64.37
461.117	8.77
461.327	47.71
461.537	73.09
461.747	48.49
461.957	56.24
462.167	156.21
462.377	110.68
462.587	57.2
462.797	116.68
463.007	66.7
463.216	111.65
463.426	121.14
463.636	108.16
463.846	26.01
464.056	66.5
464.265	115.33
464.475	63.99
464.685	85.3
464.895	81.81
465.104	89.75
465.314	85.68
465.524	75.22
465.733	64.37
465.943	134.7
466.153	103.7
466.362	103.32
466.572	89.56
466.782	72.32
466.991	84.72
467.201	132.77
467.41	34.15
467.62	121.14
467.829	69.6
468.039	107.58
468.249	80.26
468.458	90.33
468.668	117.07
468.877	105.64
469.086	120.95
469.296	97.89
469.505	68.05
469.715	162.21
469.924	63.99
470.134	129.08
470.343	131.99
470.552	81.62
470.762	97.89
470.971	63.79
471.18	89.75
471.39	55.07
471.599	52.75
471.808	116.49
472.018	39.38
472.227	120.56
472.436	122.88
472.645	62.63
472.855	59.53
473.064	104.87
473.273	90.92
473.482	95.57
473.691	135.67
473.901	118.04
474.11	96.15
474.319	167.64
474.528	88.98
474.737	129.28
474.946	131.8
475.155	95.95
475.364	112.62
475.573	111.65
475.783	120.56
475.992	85.49
476.201	133.54
476.41	106.22
476.619	60.69
476.828	109.32
477.037	69.22
477.245	102.35
477.454	125.79
477.663	84.33
477.872	94.98
478.081	152.33
478.29	65.34
478.499	166.28
478.708	96.73
478.917	156.4
479.125	145.36
479.334	129.28
479.543	75.42
479.752	129.86
479.961	100.8
480.169	119.78
480.378	65.73
480.587	190.31
480.796	129.28
481.004	124.82
481.213	115.52
481.422	105.25
481.63	96.34
481.839	133.54
482.048	191.66
482.256	108.93
482.465	101.57
482.674	139.35
482.882	124.05
483.091	187.98
483.299	124.63
483.508	146.91
483.716	105.83
483.925	125.21
484.134	103.9
484.342	99.25
484.551	138.97
484.759	144
484.967	138.19
485.176	151.95
485.384	135.87
485.593	214.14
485.801	144.97
486.01	132.96
486.218	143.23
486.426	123.85
486.635	125.21
486.843	118.43
487.051	151.37
487.26	131.02
487.468	158.15
487.676	165.9
487.885	128.31
488.093	141.87
488.301	170.55
488.509	98.28
488.717	166.67
488.926	131.8
489.134	114.17
489.342	140.9
489.55	126.18
489.758	142.84
489.967	126.37
490.175	224.8
490.383	84.52
490.591	163.76
490.799	81.03
491.007	169.58
491.215	141.87
491.423	142.65
491.631	127.15
491.839	155.82
492.047	210.65
492.255	147.88
492.463	82.97
492.671	120.95
492.879	167.45
493.087	138.19
493.295	161.25
493.503	135.28
493.711	152.72
493.919	192.83
494.127	174.23
494.334	182.95
494.542	163.38
494.75	168.03
494.958	128.12
495.166	188.56
495.374	167.45
495.581	145.94
495.789	144
495.997	205.81
496.205	145.17
496.412	164.73
496.62	159.11
496.828	185.08
497.035	145.36
497.243	192.44
497.451	166.09
497.658	171.51
497.866	154.66
498.074	192.25
498.281	132.77
498.489	233.51
498.696	165.7
498.904	162.02
499.112	176.75
499.319	237.97
499.527	209.88
499.734	210.07
499.942	133.15
500.149	132.57
500.357	167.45
500.564	163.96
500.771	205.03
500.979	161.83
501.186	159.11
501.394	175.2
501.601	191.08
501.808	218.21
502.016	191.86
502.223	183.91
502.43	179.26
502.638	182.75
502.845	172.48
503.052	246.69
503.26	183.14
503.467	257.54
503.674	176.94
503.881	190.5
504.089	261.03
504.296	211.23
504.503	131.6
504.71	217.24
504.917	156.98
505.125	202.13
505.332	169.77
505.539	200.96
505.746	266.45
505.953	193.8
506.16	193.99
506.367	266.84
506.574	223.63
506.781	229.64
506.988	185.85
507.195	204.06
507.402	189.34
507.609	217.43
507.816	196.12
508.023	185.85
508.23	200.38
508.437	156.98
508.644	229.45
508.851	249.01
509.058	233.32
509.265	221.31
509.472	210.85
509.679	300.36
509.885	181.59
510.092	199.41
510.299	200.77
510.506	215.5
510.713	226.73
510.92	218.21
511.126	227.51
511.333	260.44
511.54	225.96
511.746	291.25
511.953	262.38
512.16	286.6
512.367	204.84
512.573	221.7
512.78	223.63
512.987	226.35
513.193	251.73
513.4	164.54
513.606	196.9
513.813	254.24
514.02	240.1
514.226	315.08
514.433	271.1
514.639	203.29
514.846	249.21
515.052	238.94
515.259	230.8
515.465	229.45
515.672	234.1
515.878	336.39
516.085	229.06
516.291	260.25
516.497	221.7
516.704	238.16
516.91	210.46
517.117	223.63
517.323	214.14
517.529	238.55
517.736	261.03
517.942	248.63
518.148	242.23
518.354	261.41
518.561	236.81
518.767	268.58
518.973	273.04
519.179	284.47
519.386	212.4
519.592	217.82
519.798	196.9
520.004	274.39
520.21	239.33
520.417	277.3
520.623	314.69
520.829	290.09
521.035	269.74
521.241	288.54
521.447	285.44
521.653	389.87
521.859	256.57
522.065	276.14
522.271	355.57
522.477	320.89
522.683	342.01
522.889	348.02
523.095	308.3
523.301	319.73
523.507	305.78
523.713	344.53
523.919	290.28
524.125	343.56
524.331	276.33
524.537	358.48
524.742	299
524.948	328.45
525.154	318.18
525.36	434.82
525.566	336.2
525.772	420.67
525.977	318.57
526.183	342.98
526.389	372.62
526.595	320.51
526.8	350.15
527.006	340.27
527.212	308.88
527.417	305.2
527.623	304.81
527.829	356.35
528.034	339.88
528.24	368.75
528.446	309.27
528.651	410.21
528.857	347.63
529.062	422.42
529.268	360.03
529.473	347.44
529.679	323.22
529.884	407.11
530.09	402.66
530.295	434.24
530.501	389.09
530.706	394.32
530.912	347.63
531.117	389.87
531.323	375.72
531.528	385.8
531.733	381.34
531.939	366.23
532.144	401.3
532.35	392.39
532.555	425.71
532.76	424.74
532.966	439.27
533.171	416.41
533.376	356.74
533.581	364.29
533.787	392.39
533.992	409.05
534.197	454.58
534.402	365.65
534.607	418.74
534.813	493.52
535.018	410.99
535.223	386.57
535.428	436.95
535.633	447.6
535.838	413.89
536.043	414.86
536.249	510.38
536.454	416.02
536.659	423.58
536.864	409.44
537.069	408.27
537.274	474.15
537.479	435.98
537.684	457.29
537.889	404.01
538.094	487.71
538.299	415.83
538.504	480.54
538.708	437.53
538.913	462.33
539.118	426.68
539.323	476.86
539.528	416.22
539.733	448.77
539.938	465.82
540.142	479.19
540.347	445.09
540.552	449.15
540.757	463.1
540.962	445.86
541.166	393.94
541.371	421.84
541.576	429
541.781	341.62
541.985	430.36
542.19	426.87
542.395	456.52
542.599	509.8
542.804	454.97
543.008	495.85
543.213	447.02
543.418	419.7
543.622	450.7
543.827	416.41
544.031	502.63
544.236	487.52
544.44	461.36
544.645	526.46
544.849	442.76
545.054	487.9
545.258	536.15
545.463	526.65
545.667	450.9
545.872	471.82
546.076	455.94
546.281	483.64
546.485	427.07
546.689	495.46
546.894	524.52
547.098	497.59
547.302	428.04
547.507	476.09
547.711	470.85
547.915	497.59
548.119	462.14
548.324	496.82
548.528	542.15
548.732	490.23
548.936	518.13
549.141	521.03
549.345	460.97
549.549	487.32
549.753	454.58
549.957	559.4
550.161	523.75
550.366	474.73
550.57	478.8
550.774	482.67
550.978	462.52
551.182	529.75
551.386	480.74
551.59	467.37
551.794	485.97
551.998	489.45
552.202	442.57
552.406	444.7
552.61	480.93
552.814	487.13
553.018	538.28
553.222	472.99
553.426	482.87
553.63	557.85
553.833	479.57
554.037	447.8
554.241	504.37
554.445	497.2
554.649	461.94
554.853	480.54
555.056	538.67
555.26	522.78
555.464	510.57
555.668	500.89
555.871	522.78
556.075	521.03
556.279	449.15
556.483	443.92
556.686	523.55
556.89	481.12
557.094	504.57
557.297	454.58
557.501	543.12
557.704	421.45
557.908	521.62
558.112	465.24
558.315	539.44
558.519	500.89
558.722	497.98
558.926	475.31
559.129	470.66
559.333	423.39
559.536	427.45
559.74	469.69
559.943	457.87
560.147	418.74
560.35	457.68
560.553	424.35
560.757	398.97
560.96	538.86
561.164	454
561.367	485.39
561.57	450.12
561.774	451.87
561.977	448.77
562.18	426.49
562.384	535.95
562.587	450.7
562.79	421.84
562.993	441.21
563.197	513.28
563.4	485.77
563.603	485.19
563.806	534.21
564.009	420.67
564.212	465.62
564.416	428.62
564.619	505.15
564.822	403.43
565.025	495.46
565.228	442.57
565.431	469.5
565.634	376.11
565.837	444.89
566.04	424.35
566.243	420.67
566.446	383.09
566.649	460.39
566.852	388.71
567.055	418.54
567.258	454.58
567.461	493.91
567.664	459.04
567.867	371.27
568.07	455.94
568.273	442.95
568.475	478.6
568.678	431.52
568.881	443.92
569.084	451.09
569.287	338.52
569.489	352.47
569.692	452.84
569.895	450.12
570.098	393.74
570.3	368.17
570.503	360.22
570.706	349.96
570.909	364.87
571.111	328.64
571.314	350.92
571.516	374.95
571.719	397.62
571.922	357.51
572.124	358.29
572.327	377.47
572.529	320.12
572.732	350.92
572.935	380.57
573.137	405.76
573.34	346.27
573.542	368.17
573.745	377.47
573.947	351.51
574.15	331.55
574.352	327.87
574.554	389.67
574.757	355.57
574.959	328.26
575.162	323.22
575.364	333.87
575.566	405.56
575.769	335.42
575.971	341.82
576.173	295.32
576.376	362.36
576.578	366.23
576.78	420.87
576.982	269.16
577.185	336.78
577.387	294.16
577.589	312.76
577.791	353.44
577.993	350.34
578.196	319.34
578.398	373.4
578.6	372.24
578.802	303.84
579.004	300.16
579.206	325.93
579.408	344.14
579.61	306.36
579.812	369.72
580.014	330.77
580.216	312.95
580.418	302.49
580.62	282.34
580.822	266.84
581.024	318.96
581.226	337.56
581.428	309.85
581.63	377.47
581.832	268.19
582.034	356.74
582.236	355.77
582.438	336.01
582.64	358.48
582.841	388.9
583.043	378.44
583.245	350.73
583.447	324.38
583.649	332.32
583.85	339.11
584.052	367.78
584.254	305.01
584.456	350.92
584.657	284.47
584.859	319.93
585.061	305.78
585.262	313.14
585.464	267.23
585.666	353.25
585.867	308.11
586.069	388.71
586.27	347.24
586.472	360.42
586.674	317.79
586.875	311.59
587.077	305.98
587.278	345.11
587.48	301.71
587.681	419.7
587.883	320.31
588.084	275.94
588.285	310.04
588.487	313.92
588.688	323.03
588.89	280.01
589.091	251.53
589.292	298.23
589.494	290.86
589.695	289.12
589.896	265.09
590.098	217.24
590.299	284.47
590.5	266.84
590.702	267.61
590.903	282.53
591.104	311.98
591.305	286.41
591.507	358.67
591.708	307.91
591.909	261.8
592.11	365.65
592.311	305.01
592.512	286.99
592.714	247.27
592.915	250.18
593.116	276.53
593.317	275.36
593.518	264.32
593.719	244.17
593.92	307.33
594.121	336.01
594.322	285.05
594.523	287.18
594.724	246.11
594.925	275.36
595.126	313.92
595.327	309.27
595.528	327.29
595.729	306.75
595.929	265.29
596.13	292.03
596.331	278.85
596.532	303.46
596.733	341.24
596.934	294.54
597.135	291.64
597.335	299
597.536	273.62
597.737	290.86
597.938	257.54
598.138	302.1
598.339	270.71
598.54	292.99
598.74	289.31
598.941	312.37
599.142	332.13
599.342	311.21
599.543	277.11
599.744	281.76
599.944	280.59
600.145	261.41
600.345	273.04
600.546	336.39
600.746	300.74
600.947	364.49
601.147	307.33
601.348	344.72
601.548	264.13
601.749	292.22
601.949	270.52
602.15	267.81
602.35	292.61
602.551	313.34
602.751	248.82
602.951	252.89
603.152	212.78
603.352	278.46
603.552	291.83
603.753	291.25
603.953	287.18
604.153	301.13
604.354	274.78
604.554	278.85
604.754	277.3
604.954	245.33
605.155	282.73
605.355	258.51
605.555	310.82
605.755	313.73
605.955	296.87
606.155	301.13
606.356	290.48
606.556	305.59
606.756	300.36
606.956	223.83
607.156	330.19
607.356	258.7
607.556	289.7
607.756	280.01
607.956	304.81
608.156	281.95
608.356	264.51
608.556	300.36
608.756	293.58
608.956	272.26
609.156	265.68
609.356	243.78
609.556	267.42
609.755	290.09
609.955	245.72
610.155	292.99
610.355	296.87
610.555	254.24
610.755	261.61
610.954	224.6
611.154	279.43
611.354	300.36
611.554	266.45
611.753	262.96
611.953	232.55
612.153	285.05
612.352	315.86
612.552	249.59
612.752	216.66
612.951	282.34
613.151	291.83
613.351	234.1
613.55	260.25
613.75	283.11
613.949	267.61
614.149	261.22
614.348	251.92
614.548	239.91
614.747	205.23
614.947	243.78
615.146	207.36
615.346	264.13
615.545	272.07
615.745	260.44
615.944	293.77
616.144	248.24
616.343	285.63
616.542	253.86
616.742	267.23
616.941	259.67
617.14	204.84
617.34	256.38
617.539	244.94
617.738	203.48
617.938	290.28
618.137	232.35
618.336	223.83
618.535	257.93
618.734	233.13
618.934	245.14
619.133	252.11
619.332	260.83
619.531	224.8
619.73	224.02
619.929	291.06
620.128	274.78
620.328	297.84
620.527	226.54
620.726	241.07
620.925	264.32
621.124	231.77
621.323	250.37
621.522	216.08
621.721	211.23
621.92	210.46
622.119	263.35
622.318	240.88
622.517	229.25
622.715	250.56
622.914	199.03
623.113	216.66
623.312	209.68
623.511	240.29
623.71	221.5
623.909	190.5
624.107	271.88
624.306	182.95
624.505	218.21
624.704	206
624.902	219.56
625.101	266.64
625.3	250.95
625.499	205.23
625.697	206.2
625.896	185.08
626.095	261.22
626.293	183.33
626.492	224.41
626.69	241.65
626.889	193.21
627.088	228.28
627.286	183.33
627.485	195.93
627.683	190.11
627.882	230.8
628.08	162.99
628.279	209.88
628.477	267.23
628.676	193.99
628.874	231.19
629.073	176.36
629.271	172.68
629.469	231
629.668	192.25
629.866	209.68
630.065	211.23
630.263	222.47
630.461	202.51
630.66	219.37
630.858	248.63
631.056	259.48
631.254	262.96
631.453	200
631.651	236.61
631.849	217.82
632.047	227.31
632.245	195.54
632.444	201.93
632.642	227.12
632.84	233.32
633.038	200.38
633.236	196.12
633.434	201.35
633.632	187.6
633.83	216.85
634.028	221.7
634.227	204.06
634.425	259.67
634.623	191.47
634.821	212.98
635.019	184.5
635.216	178.1
635.414	215.5
635.612	226.93
635.81	189.34
636.008	250.37
636.206	204.45
636.404	226.93
636.602	190.31
636.8	196.51
636.997	204.45
637.195	231.19
637.393	196.12
637.591	241.84
637.789	212.98
637.986	191.47
638.184	218.4
638.382	268.39
638.58	221.89
638.777	258.7
638.975	202.71
639.173	227.9
639.37	217.82
639.568	230.8
639.765	255.6
639.963	203.29
640.161	257.34
640.358	249.21
640.556	180.23
640.753	176.75
640.951	188.76
641.148	222.66
641.346	214.72
641.543	188.95
641.741	222.08
641.938	165.7
642.136	208.13
642.333	193.8
642.531	232.35
642.728	275.17
642.925	193.6
643.123	202.71
643.32	218.4
643.517	195.54
643.715	237.39
643.912	194.76
644.109	209.88
644.306	209.1
644.504	173.84
644.701	228.48
644.898	226.54
645.095	191.47
645.293	194.57
645.49	218.79
645.687	219.37
645.884	241.26
646.081	169.58
646.278	183.53
646.475	162.99
646.672	172.48
646.87	231
647.067	222.47
647.264	187.4
647.461	157.18
647.658	140.9
647.855	226.73
648.052	206.39
648.249	141.48
648.446	199.61
648.642	156.98
648.839	190.31
649.036	163.57
649.233	135.67
649.43	139.35
649.627	126.95
649.824	169.77
650.021	157.37
650.217	173.06
650.414	153.88
650.611	181.59
650.808	213.17
651.004	186.63
651.201	181.2
651.398	230.03
651.595	163.38
651.791	154.46
651.988	195.15
652.185	169.19
652.381	200.77
652.578	130.44
652.775	194.18
652.971	185.46
653.168	174.03
653.364	207.36
653.561	139.55
653.757	157.18
653.954	178.49
654.15	162.8
654.347	245.14
654.543	151.17
654.74	145.36
654.936	153.69
655.133	202.13
655.329	169.19
655.525	166.28
655.722	176.16
655.918	165.9
656.115	206.97
656.311	132.57
656.507	134.9
656.704	102.15
656.9	135.67
657.096	131.22
657.292	131.99
657.489	197.86
657.685	170.16
657.881	141.68
658.077	120.75
658.273	161.44
658.47	194.96
658.666	159.31
658.862	174.61
659.058	138.77
659.254	198.83
659.45	147.88
659.646	170.35
659.842	122.3
660.038	202.32
660.234	147.88
660.43	157.37
660.626	197.09
660.822	181.4
661.018	178.49
661.214	172.48
661.41	133.15
661.606	214.72
661.802	198.64
661.998	164.54
662.194	114.75
662.39	177.91
662.586	185.85
662.781	181.2
662.977	183.91
663.173	186.43
663.369	167.83
663.564	186.43
663.76	199.61
663.956	117.65
664.152	193.6
664.347	104.48
664.543	174.81
664.739	172.29
664.934	118.04
665.13	111.45
665.326	178.88
665.521	169.19
665.717	137.03
665.912	139.35
666.108	85.49
666.304	141.48
666.499	106.22
666.695	83.17
666.89	146.52
667.086	174.23
667.281	165.31
667.477	210.26
667.672	156.01
667.867	169.19
668.063	167.06
668.258	145.94
668.454	131.22
668.649	212.98
668.844	151.75
669.04	189.53
669.235	164.35
669.43	131.22
669.626	100.8
669.821	134.12
670.016	119.78
670.211	158.15
670.407	113.58
670.602	147.88
670.797	166.48
670.992	172.1
671.187	117.85
671.382	171.51
671.578	144.58
671.773	156.4
671.968	143.42
672.163	134.9
672.358	171.9
672.553	120.56
672.748	135.28
672.943	208.33
673.138	151.56
673.333	181.98
673.528	127.73
673.723	173.65
673.918	160.86
674.113	105.06
674.308	214.53
674.503	159.7
674.698	177.52
674.892	177.33
675.087	177.71
675.282	167.06
675.477	135.48
675.672	151.56
675.867	146.91
676.061	108.35
676.256	116.1
676.451	118.23
676.646	139.55
676.84	115.91
677.035	89.95
677.23	105.83
677.424	166.28
677.619	156.4
677.814	204.65
678.008	201.93
678.203	104.48
678.397	141.68
678.592	141.68
678.787	217.05
678.981	148.85
679.176	124.82
679.37	161.44
679.565	123.27
679.759	112.42
679.954	145.17
680.148	183.33
680.342	167.06
680.537	182.75
680.731	109.32
680.926	159.11
681.12	148.65
681.314	148.07
681.509	134.51
681.703	151.56
681.897	195.93
682.092	136.45
682.286	126.76
682.48	211.62
682.674	210.26
682.869	126.95
683.063	156.01
683.257	195.54
683.451	149.43
683.645	160.66
683.839	159.31
684.034	141.48
684.228	189.92
684.422	96.53
684.616	109.71
684.81	170.93
685.004	140.71
685.198	150.59
685.392	173.26
685.586	100.02
685.78	155.63
685.974	169.58
686.168	176.55
686.362	187.6
686.556	121.33
686.75	119.98
686.944	145.94
687.138	199.03
687.331	103.7
687.525	120.56
687.719	99.63
687.913	162.8
688.107	157.56
688.301	123.47
688.494	155.24
688.688	122.5
688.882	93.82
689.076	86.07
689.269	114.36
689.463	192.44
689.657	138.38
689.85	140.32
690.044	107.38
690.238	116.49
690.431	138.19
690.625	109.9
690.818	134.7
691.012	125.98
691.205	145.94
691.399	104.87
691.593	143.42
691.786	199.8
691.98	166.86
692.173	217.24
692.366	164.15
692.56	182.36
692.753	205.23
692.947	123.85
693.14	212.98
693.333	190.11
693.527	131.02
693.72	176.55
693.914	167.83
694.107	167.06
694.3	181.59
694.493	159.11
694.687	210.65
694.88	142.07
695.073	195.73
695.266	184.69
695.46	149.62
695.653	236.03
695.846	221.7
696.039	120.95
696.232	185.27
696.425	185.46
696.618	190.31
696.812	180.62
697.005	238.36
697.198	303.84
697.391	189.53
697.584	247.27
697.777	267.61
697.97	251.14
698.163	253.28
698.356	230.61
698.549	314.31
698.742	278.85
698.935	265.68
699.127	272.07
699.32	233.9
699.513	246.88
699.706	250.95
699.899	301.91
700.092	238.94
700.285	294.93
700.477	231
700.67	291.25
700.863	302.68
701.056	349.18
701.248	317.21
701.441	338.33
701.634	279.04
701.826	392.19
702.019	261.8
702.212	334.07
702.404	273.43
702.597	280.4
702.79	330.97
702.982	336.39
703.175	356.35
703.367	362.36
703.56	384.83
703.752	428.42
703.945	364.49
704.137	364.1
704.33	413.7
704.522	380.37
704.715	397.23
704.907	399.17
705.1	430.55
705.292	443.34
705.484	393.74
705.677	430.55
705.869	424.74
706.061	441.6
706.254	494.69
706.446	462.33
706.638	469.89
706.831	508.05
707.023	463.49
707.215	526.46
707.407	536.34
707.599	494.1
707.792	573.93
707.984	509.99
708.176	537.7
708.368	546.61
708.56	527.43
708.752	538.28
708.944	537.7
709.136	552.03
709.329	543.9
709.521	654.14
709.713	612.68
709.905	605.31
710.097	637.86
710.289	584.58
710.481	598.92
710.672	598.73
710.864	598.73
711.056	631.86
711.248	647.16
711.44	670.8
711.632	654.91
711.824	651.43
712.016	726.79
712.207	714.59
712.399	705.09
712.591	783.76
712.783	707.23
712.975	745.39
713.166	705.29
713.358	751.59
713.55	799.64
713.741	758.18
713.933	780.66
714.125	748.11
714.316	742.88
714.508	811.27
714.7	803.52
714.891	822.7
715.083	864.35
715.274	813.4
715.466	834.71
715.657	855.64
715.849	786.86
716.04	853.31
716.232	779.11
716.423	869.2
716.615	828.32
716.806	778.52
716.998	809.52
717.189	762.25
717.381	726.41
717.572	716.72
717.763	760.31
717.955	753.14
718.146	747.14
718.337	696.38
718.528	676.03
718.72	639.03
718.911	711.1
719.102	685.91
719.293	728.54
719.485	698.89
719.676	715.36
719.867	691.53
720.058	685.33
720.249	703.35
720.44	732.61
720.632	747.33
720.823	779.88
721.014	830.26
721.205	855.64
721.396	898.07
721.587	970.14
721.778	939.92
721.969	949.02
722.16	976.53
722.351	991.45
722.542	1069.53
722.733	1057.91
722.924	998.23
723.115	1079.22
723.305	1091.04
723.496	1077.67
723.687	1003.85
723.878	1035.05
724.069	1008.89
724.26	1027.3
724.45	992.81
724.641	988.55
724.832	1019.16
725.023	1058.88
725.213	1000.56
725.404	1025.94
725.595	997.07
725.785	1014.12
725.976	1076.31
726.167	1048.03
726.357	1045.31
726.548	1146.26
726.739	1073.8
726.929	1123.01
727.12	1159.24
727.31	1164.47
727.501	1152.65
727.691	1154.39
727.882	1151.1
728.072	1223.56
728.263	1190.63
728.453	1228.21
728.644	1262.89
728.834	1242.55
729.024	1187.72
729.215	1194.11
729.405	1249.33
729.596	1310.75
729.786	1294.09
729.976	1299.7
730.167	1331.09
730.357	1306.1
730.547	1290.21
730.737	1348.72
730.928	1386.31
731.118	1390.96
731.308	1340.2
731.498	1372.55
731.688	1414.6
731.879	1434.75
732.069	1504.5
732.259	1473.69
732.449	1485.9
732.639	1568.24
732.829	1567.66
733.019	1609.31
733.209	1621.13
733.399	1657.94
733.589	1680.03
733.779	1709.48
733.969	1675.57
734.159	1774.39
734.349	1770.32
734.539	1826.31
734.729	1795.12
734.919	1854.4
735.109	1898.77
735.299	1829.02
735.488	1829.8
735.678	1844.72
735.868	1860.41
736.058	1877.85
736.248	1846.27
736.437	1841.62
736.627	1852.27
736.817	1966.78
737.007	1893.93
737.196	1954.76
737.386	1932.29
737.576	1924.35
737.765	1969.49
737.955	1963.1
738.144	2031.1
738.334	2059
738.524	1975.88
738.713	2010.76
738.903	2006.69
739.092	2032.46
739.282	2047.57
739.471	2078.37
739.661	2047.38
739.85	2050.86
740.04	2087.48
740.229	2081.67
740.419	2147.93
740.608	2143.47
740.797	2109.57
740.987	2221.55
741.176	2178.15
741.365	2125.26
741.555	2158.39
741.744	2185.71
741.933	2209.15
742.123	2231.05
742.312	2238.41
742.501	2251.39
742.69	2240.54
742.88	2185.32
743.069	2327.73
743.258	2275.03
743.447	2314.17
743.636	2320.75
743.825	2276.77
744.014	2331.02
744.204	2362.02
744.393	2312.81
744.582	2368.61
744.771	2400.77
744.96	2313.78
745.149	2359.5
745.338	2310.48
745.527	2378.3
745.716	2348.26
745.905	2327.92
746.094	2388.37
746.283	2398.83
746.471	2374.61
746.66	2465.29
746.849	2405.81
747.038	2446.69
747.227	2406.39
747.416	2462.96
747.604	2389.92
747.793	2380.43
747.982	2430.99
748.171	2449.21
748.359	2453.08
748.548	2447.08
748.737	2407.55
748.926	2434.68
749.114	2362.02
749.303	2432.54
749.491	2423.44
749.68	2387.98
749.869	2478.08
750.057	2419.56
750.246	2392.83
750.434	2449.98
750.623	2422.47
750.811	2436.42
751	2490.48
751.188	2436.61
751.377	2455.99
751.565	2437.97
751.754	2399.22
751.942	2383.53
752.131	2469.74
752.319	2375.78
752.507	2392.63
752.696	2474.39
752.884	2499.97
753.072	2422.86
753.261	2448.43
753.449	2417.05
753.637	2413.36
753.825	2482.73
754.014	2460.44
754.202	2409.88
754.39	2455.41
754.578	2470.13
754.766	2448.82
754.955	2407.36
755.143	2506.56
755.331	2416.27
755.519	2436.03
755.707	2428.67
755.895	2425.57
756.083	2418.79
756.271	2416.08
756.459	2406.58
756.647	2457.73
756.835	2392.05
757.023	2399.61
757.211	2387.01
757.399	2351.36
757.587	2387.01
757.775	2329.47
757.963	2370.16
758.151	2371.9
758.339	2361.83
758.526	2375.2
758.714	2370.35
758.902	2277.93
759.09	2223.88
759.278	2073.14
759.465	1904.2
759.653	1636.83
759.841	1501.59
760.028	1307.07
760.216	1103.83
760.404	1050.74
760.591	808.36
760.779	738.03
760.967	629.73
761.154	486.74
761.342	559.78
761.529	533.63
761.717	606.67
761.905	576.83
762.092	645.03
762.28	573.15
762.467	567.92
762.655	508.05
762.842	568.89
763.029	570.25
763.217	546.22
763.404	568.5
763.592	591.17
763.779	530.14
763.966	596.4
764.154	622.75
764.341	656.27
764.528	636.12
764.716	714.2
764.903	773.87
765.09	770.97
765.277	826.96
765.465	947.47
765.652	981.57
765.839	1044.93
766.026	1138.51
766.213	1154.98
766.4	1253.79
766.588	1419.83
766.775	1388.25
766.962	1456.25
767.149	1533.36
767.336	1659.11
767.523	1587.61
767.71	1701.92
767.897	1777.29
768.084	1833.28
768.271	1854.79
768.458	1934.23
768.645	1941.98
768.832	1949.92
769.019	1959.41
769.206	2001.46
769.392	2039.82
769.579	2114.61
769.766	2060.55
769.953	2074.5
770.14	2133.98
770.327	2090.77
770.513	2150.26
770.7	2266.89
770.887	2128.17
771.073	2186.49
771.26	2177.77
771.447	2133.21
771.634	2171.95
771.82	2230.08
772.007	2151.03
772.193	2158.78
772.38	2227.56
772.567	2173.5
772.753	2169.82
772.94	2239.19
773.126	2253.72
773.313	2210.9
773.499	2195.59
773.686	2215.55
773.872	2125.26
774.059	2167.11
774.245	2131.27
774.432	2176.6
774.618	2107.44
774.804	2178.15
774.991	2130.69
775.177	2196.95
775.363	2133.21
775.55	2156.46
775.736	2160.91
775.922	2152.97
776.109	2155.68
776.295	2144.83
776.481	2175.25
776.667	2150.26
776.853	2131.07
777.04	2116.93
777.226	2136.69
777.412	2204.89
777.598	2119.84
777.784	2106.66
777.97	2076.63
778.156	2153.16
778.342	2075.27
778.528	2122.16
778.715	2054.16
778.901	2056.09
779.087	2093.49
779.272	2059.58
779.458	2035.94
779.644	2100.07
779.83	2061.52
780.016	2177.38
780.202	2056.09
780.388	2049.7
780.574	1995.45
780.76	2058.03
780.946	2067.53
781.131	2070.24
781.317	2057.64
781.503	2020.25
781.689	2040.01
781.874	2130.69
782.06	2029.36
782.246	2009.59
782.432	2002.62
782.617	2038.46
782.803	2059
782.989	1984.6
783.174	1985.96
783.36	1957.67
783.545	2007.66
783.731	1967.75
783.916	1912.72
784.102	2003.39
784.288	1952.05
784.473	1981.89
784.659	1964.06
784.844	1980.15
785.029	1931.32
785.215	1931.32
785.4	1896.83
785.586	1972.4
785.771	1883.27
785.956	1957.48
786.142	1925.7
786.327	1915.63
786.512	1925.31
786.698	1905.55
786.883	1888.12
787.068	1880.75
787.254	1893.93
787.439	1823.4
787.624	1864.87
787.809	1860.02
787.994	1836.38
788.18	1900.32
788.365	1829.6
788.55	1845.1
788.735	1857.5
788.92	1798.99
789.105	1864.09
789.29	1835.8
789.475	1763.92
789.66	1783.3
789.845	1795.7
790.03	1740.09
790.215	1802.09
790.4	1819.14
790.585	1860.8
790.77	1788.34
790.955	1739.9
791.14	1781.75
791.325	1825.15
791.51	1736.02
791.695	1768.57
791.879	1780.39
792.064	1684.68
792.249	1834.25
792.434	1754.82
792.618	1750.55
792.803	1791.63
792.988	1793.37
793.173	1741.84
793.357	1809.26
793.542	1714.52
793.727	1780.39
793.911	1769.15
794.096	1752.88
794.281	1771.48
794.465	1848.2
794.65	1784.65
794.834	1801.32
795.019	1841.62
795.203	1819.72
795.388	1840.26
795.572	1861.18
795.757	1779.81
795.941	1812.17
796.126	1816.04
796.31	1746.68
796.494	1778.65
796.679	1792.21
796.863	1782.52
797.048	1824.57
797.232	1777.29
797.416	1793.95
797.601	1767.99
797.785	1876.49
797.969	1854.4
798.153	1781.75
798.338	1811.2
798.522	1862.35
798.706	1843.36
798.89	1850.72
799.074	1883.27
799.258	1860.22
799.443	1814.88
799.627	1803.25
799.811	1860.8
799.995	1815.27
800.179	1802.48
800.363	1768.38
800.547	1814.49
800.731	1816.82
800.915	1766.05
801.099	1792.02
801.283	1781.94
801.467	1786.98
801.651	1778.26
801.835	1832.12
802.019	1832.9
802.202	1820.3
802.386	1764.12
802.57	1771.09
802.754	1820.88
802.938	1748.04
803.121	1770.12
803.305	1839.29
803.489	1778.84
803.673	1775.35
803.856	1822.63
804.04	1788.34
804.224	1805.77
804.407	1807.9
804.591	1798.8
804.775	1800.74
804.958	1830.57
805.142	1891.41
805.326	1807.32
805.509	1801.51
805.693	1841.23
805.876	1880.75
806.06	1829.22
806.243	1870.68
806.427	1846.65
806.61	1859.83
806.794	1811.39
806.977	1842
807.16	1805.19
807.344	1833.87
807.527	1813.33
807.71	1805.97
807.894	1812.36
808.077	1831.54
808.26	1764.12
808.444	1780.59
808.627	1853.05
808.81	1780.97
808.993	1747.84
809.177	1737.57
809.36	1756.56
809.543	1754.62
809.726	1666.08
809.909	1707.54
810.092	1681.19
810.276	1699.99
810.459	1717.81
810.642	1685.26
810.825	1658.14
811.008	1688.36
811.191	1589.55
811.374	1627.14
811.557	1628.3
811.74	1686.42
811.923	1575.41
812.106	1569.4
812.289	1570.18
812.472	1532.59
812.654	1558.36
812.837	1549.06
813.02	1465.75
813.203	1471.36
813.386	1399.68
813.569	1390.57
813.751	1345.62
813.934	1407.23
814.117	1348.72
814.3	1320.44
814.482	1314.62
814.665	1287.5
814.848	1260.18
815.03	1222.98
815.213	1240.03
815.396	1220.27
815.578	1219.49
815.761	1147.81
815.943	1230.15
816.126	1132.69
816.309	1104.8
816.491	1089.88
816.674	1019.74
816.856	1098.4
817.039	1079.8
817.221	1142.58
817.403	1094.14
817.586	1103.25
817.768	1173.58
817.951	1033.3
818.133	1048.22
818.315	1068.76
818.498	1129.21
818.68	1169.51
818.862	1130.56
819.045	1151.88
819.227	1170.09
819.409	1123.78
819.591	1127.27
819.774	1108.28
819.956	1122.04
820.138	1150.13
820.32	1202.06
820.502	1221.43
820.684	1245.26
820.866	1251.46
821.048	1298.15
821.231	1305.52
821.413	1318.3
821.595	1291.76
821.777	1283.43
821.959	1244.68
822.141	1334.58
822.323	1153.04
822.505	1129.4
822.686	1122.62
822.868	1095.3
823.05	1002.69
823.232	995.33
823.414	968.59
823.596	995.33
823.778	990.68
823.96	998.04
824.141	995.13
824.323	1029.62
824.505	1050.74
824.687	1129.79
824.868	1146.06
825.05	1222.21
825.232	1239.45
825.413	1290.6
825.595	1232.86
825.777	1187.33
825.958	1250.11
826.14	1215.81
826.321	1272.77
826.503	1200.7
826.685	1268.71
826.866	1259.41
827.048	1281.11
827.229	1193.73
827.411	1177.64
827.592	1145.48
827.773	1143.54
827.955	1111.77
828.136	1135.99
828.318	1087.94
828.499	1155.17
828.68	1092.98
828.862	1121.65
829.043	1114.29
829.224	1123.01
829.406	1107.9
829.587	1096.85
829.768	1080.58
829.949	1111.96
830.131	1088.52
830.312	1157.3
830.493	1096.46
830.674	1104.99
830.855	1092.2
831.036	1110.8
831.218	1151.1
831.399	1179.19
831.58	1115.26
831.761	1109.64
831.942	1137.73
832.123	1116.23
832.304	1061.98
832.485	1114.48
832.666	1136.18
832.847	1148.58
833.028	1101.5
833.209	1118.55
833.389	1109.64
833.57	1054.81
833.751	1111.19
833.932	1125.53
834.113	1113.9
834.294	1089.68
834.475	1148.58
834.655	1145.29
834.836	1190.04
835.017	1129.98
835.198	1088.52
835.378	1146.45
835.559	1159.63
835.74	1096.27
835.92	1123.01
836.101	1110.03
836.281	1121.46
836.462	1178.03
836.643	1166.99
836.823	1181.33
837.004	1173.96
837.184	1242.16
837.365	1202.25
837.545	1204.19
837.726	1148.58
837.906	1243.52
838.087	1194.89
838.267	1165.05
838.448	1132.11
838.628	1151.68
838.808	1151.68
838.989	1216.39
839.169	1149.16
839.349	1180.94
839.53	1194.89
839.71	1196.24
839.89	1129.4
840.07	1213.29
840.251	1173.38
840.431	1211.74
840.611	1191.59
840.791	1132.89
840.971	1189.08
841.151	1172.61
841.332	1138.12
841.512	1219.11
841.692	1104.21
841.872	1194.5
842.052	1162.14
842.232	1181.33
842.412	1149.16
842.592	1137.93
842.772	1157.3
842.952	1172.41
843.132	1148.39
843.312	1150.71
843.492	1103.44
843.672	1167.76
843.851	1122.62
844.031	1165.83
844.211	1139.28
844.391	1122.81
844.571	1152.07
844.751	1151.88
844.93	1166.21
845.11	1125.33
845.29	1153.81
845.47	1155.75
845.649	1173.58
845.829	1137.54
846.009	1109.83
846.188	1155.56
846.368	1114.09
846.547	1142.58
846.727	1154.39
846.907	1135.02
847.086	1136.57
847.266	1156.33
847.445	1148.97
847.625	1093.95
847.804	1103.05
847.984	1122.23
848.163	1099.18
848.343	1111.96
848.522	1125.14
848.701	1123.59
848.881	1092.4
849.06	1080.38
849.239	1110.61
849.419	1125.72
849.598	1078.25
849.777	1084.65
849.957	1035.24
850.136	1020.52
850.315	1020.9
850.494	991.07
850.674	1013.35
850.853	1067.21
851.032	1043.38
851.211	1063.72
851.39	1057.91
851.569	1011.41
851.748	1003.85
851.927	1048.61
852.107	1039.89
852.286	986.61
852.465	988.74
852.644	1043.96
852.823	1023.23
853.002	1005.4
853.181	1011.22
853.359	971.88
853.538	994.94
853.717	1047.83
853.896	970.53
854.075	907.95
854.254	919.77
854.433	849.44
854.611	899.62
854.79	881.79
854.969	913.76
855.148	938.17
855.327	872.3
855.505	925.58
855.684	898.84
855.863	938.56
856.041	915.5
856.22	975.18
856.399	906.2
856.577	1025.94
856.756	993.78
856.934	1075.35
857.113	1061.2
857.291	994.17
857.47	960.26
857.648	975.18
857.827	985.64
858.005	1020.52
858.184	974.02
858.362	1071.28
858.541	996.88
858.719	990.1
858.898	984.67
859.076	948.83
859.254	1061.2
859.433	953.87
859.611	942.63
859.789	916.09
859.967	1001.72
860.146	1019.55
860.324	940.69
860.502	937.01
860.68	896.71
860.859	913.57
861.037	961.03
861.215	971.88
861.393	953.67
861.571	958.71
861.749	931.2
861.927	962
862.105	957.55
862.283	941.66
862.461	935.85
862.639	909.3
862.817	928.68
862.995	937.79
863.173	905.43
863.351	943.79
863.529	943.6
863.707	960.07
863.885	960.45
864.063	896.9
864.241	885.28
864.418	924.22
864.596	876.56
864.774	854.47
864.952	916.47
865.129	904.46
865.307	876.37
865.485	849.82
865.663	925
865.84	829.87
866.018	871.14
866.196	770
866.373	776.78
866.551	800.42
866.728	725.24
866.906	765.35
867.084	786.66
867.261	834.32
867.439	844.4
867.616	854.09
867.794	851.37
867.971	829.48
868.149	828.9
868.326	867.84
868.503	835.29
868.681	862.42
868.858	836.26
869.035	837.04
869.213	850.41
869.39	849.05
869.567	874.62
869.745	830.06
869.922	846.34
870.099	876.56
870.276	854.09
870.454	872.49
870.631	881.4
870.808	836.84
870.985	870.94
871.162	892.25
871.339	872.69
871.517	836.26
871.694	816.11
871.871	835.68
872.048	825.8
872.225	810.88
872.402	835.1
872.579	764.77
872.756	832.97
872.933	785.31
873.11	790.15
873.287	834.71
873.463	806.81
873.64	793.06
873.817	849.44
873.994	804.1
874.171	780.85
874.348	811.27
874.524	757.79
874.701	797.71
874.878	734.74
875.055	793.64
875.231	807.01
875.408	813.21
875.585	732.22
875.762	770.58
875.938	758.76
876.115	760.51
876.291	741.52
876.468	760.51
876.645	720.4
876.821	765.93
876.998	769.03
877.174	754.69
877.351	759.73
877.527	732.61
877.704	726.99
877.88	742.1
878.057	726.41
878.233	770.97
878.409	742.29
878.586	745.39
878.762	745.39
878.938	715.56
879.115	671.19
879.291	743.46
879.467	684.94
879.644	702.96
879.82	762.83
879.996	704.51
880.172	661.11
880.349	718.27
880.525	738.03
880.701	699.09
880.877	675.06
881.053	754.69
881.229	696.76
881.405	750.63
881.581	686.88
881.757	732.61
881.933	711.88
882.109	715.17
882.285	702.38
882.461	649.1
882.637	716.91
882.813	683.2
882.989	689.98
883.165	749.08
883.341	697.15
883.517	720.79
883.693	702.96
883.869	708.19
884.044	689.01
884.22	731.64
884.396	744.62
884.572	702.96
884.747	740.36
884.923	720.79
885.099	718.46
885.275	747.14
885.45	694.44
885.626	664.8
885.801	686.3
885.977	690.56
886.153	643.29
886.328	693.66
886.504	689.98
886.679	696.57
886.855	697.73
887.03	695.99
887.206	732.03
887.381	715.56
887.557	714.2
887.732	716.72
887.908	730.09
888.083	739.39
888.258	703.35
888.434	674.29
888.609	720.21
888.784	722.14
888.96	695.99
889.135	696.18
889.31	683.2
889.485	703.93
889.661	666.54
889.836	722.34
890.011	707.81
890.186	679.33
890.361	679.13
890.537	702.77
890.712	715.94
890.887	678.74
891.062	706.64
891.237	708.39
891.412	654.53
891.587	695.41
891.762	732.61
891.937	773.49
892.112	674.1
892.287	687.46
892.462	626.82
892.637	623.72
892.812	644.06
892.987	656.08
893.161	619.46
893.336	640.77
893.511	645.42
893.686	655.3
893.861	610.35
894.035	601.83
894.21	614.81
894.385	597.18
894.56	621.01
894.734	553.78
894.909	572.38
895.084	582.65
895.258	562.5
895.433	593.3
895.608	581.48
895.782	535.57
895.957	533.24
896.131	525.68
896.306	474.54
896.48	491.39
896.655	485.97
896.829	438.5
897.004	454.97
897.178	457.87
897.353	433.85
897.527	494.3
897.701	478.41
897.876	416.02
898.05	485.77
898.224	472.02
898.399	520.65
898.573	471.82
898.747	384.06
898.921	429.39
899.096	369.52
899.27	376.69
899.444	344.92
899.618	398.97
899.792	415.05
899.967	410.41
900.141	444.7
900.315	388.32
900.489	377.27
900.663	411.57
900.837	420.48
901.011	352.09
901.185	433.27
901.359	416.41
901.533	389.87
901.707	416.99
901.881	399.17
902.055	372.62
902.229	379.41
902.403	460.39
902.576	406.14
902.75	431.52
902.924	526.27
903.098	469.3
903.272	481.7
903.446	520.84
903.619	481.32
903.793	518.13
903.967	506.89
904.14	547.97
904.314	516
904.488	519.1
904.661	516.58
904.835	494.88
905.009	528.59
905.182	581.48
905.356	544.67
905.529	514.64
905.703	474.54
905.876	470.27
906.05	475.5
906.223	467.75
906.397	396.26
906.57	410.21
906.744	403.43
906.917	394.52
907.09	394.71
907.264	371.27
907.437	381.73
907.61	351.89
907.784	383.67
907.957	401.49
908.13	367.97
908.304	399.75
908.477	368.17
908.65	357.12
908.823	328.84
908.996	398.97
909.17	349.76
909.343	375.92
909.516	340.27
909.689	360.03
909.862	313.53
910.035	346.66
910.208	298.81
910.381	329.22
910.554	397.23
910.727	374.95
910.9	326.71
911.073	322.44
911.246	403.04
911.419	382.31
911.592	373.98
911.765	366.23
911.938	337.75
912.11	356.74
912.283	344.53
912.456	383.67
912.629	338.33
912.802	323.8
912.974	296.09
913.147	307.14
913.32	259.48
913.493	285.44
913.665	302.29
913.838	306.75
914.01	277.11
914.183	290.48
914.356	285.44
914.528	326.13
914.701	356.74
914.873	332.13
915.046	299.78
915.218	269.55
915.391	217.43
915.563	253.86
915.736	290.28
915.908	313.73
916.081	320.89
916.253	307.14
916.425	318.76
916.598	312.95
916.77	305.01
916.942	283.5
917.115	242.62
917.287	304.81
917.459	283.89
917.632	248.43
917.804	214.14
917.976	292.8
918.148	282.53
918.32	235.06
918.493	305.01
918.665	324.19
918.837	319.34
919.009	363.91
919.181	339.88
919.353	321.48
919.525	289.7
919.697	324.58
919.869	321.28
920.041	369.52
920.213	403.04
920.385	342.01
920.557	332.71
920.729	349.18
920.901	343.17
921.073	334.65
921.244	305.01
921.416	361.58
921.588	321.28
921.76	324.77
921.932	356.16
922.103	305.39
922.275	317.6
922.447	331.94
922.619	257.93
922.79	300.36
922.962	322.64
923.134	332.71
923.305	284.28
923.477	252.11
923.648	246.69
923.82	286.41
923.991	222.66
924.163	230.03
924.335	256.96
924.506	238.75
924.677	318.57
924.849	260.83
925.02	277.49
925.192	296.29
925.363	280.01
925.535	271.68
925.706	238.36
925.877	316.24
926.049	267.23
926.22	264.13
926.391	265.29
926.562	287.38
926.734	263.93
926.905	307.72
927.076	235.06
927.247	265.87
927.419	205.81
927.59	227.31
927.761	208.52
927.932	216.66
928.103	253.47
928.274	202.13
928.445	185.08
928.616	201.93
928.787	180.23
928.958	202.9
929.129	192.44
929.3	210.46
929.471	149.43
929.642	128.89
929.813	104.87
929.984	188.56
930.155	102.93
930.326	141.48
930.496	137.03
930.667	62.63
930.838	114.75
931.009	86.85
931.18	89.56
931.35	120.56
931.521	118.62
931.692	55.07
931.863	18.45
932.033	104.48
932.204	99.05
932.374	79.87
932.545	20
932.716	113.58
932.886	89.75
933.057	22.14
933.227	59.34
933.398	119.78
933.568	18.84
933.739	-8.09
933.909	31.44
934.08	68.83
934.25	-10.03
934.421	2.76
934.591	44.61
934.761	-9.45
934.932	-22.62
935.102	27.95
935.272	24.07
935.443	39.57
935.613	6.44
935.783	45.97
935.953	-4.8
936.123	146.33
936.294	-30.18
936.464	21.55
936.634	36.67
936.804	-33.47
936.974	15.55
937.144	37.05
937.314	41.7
937.484	24.07
937.655	-4.21
937.825	57.01
937.995	-10.03
938.165	66.31
938.334	30.85
938.504	41.7
938.674	21.94
938.844	8.96
939.014	89.37
939.184	60.3
939.354	95.18
939.524	82
939.694	44.8
939.863	50.81
940.033	113.78
940.203	104.67
940.373	89.95
940.542	72.32
940.712	37.83
940.882	81.42
941.051	99.25
941.221	60.89
941.391	98.28
941.56	25.04
941.73	40.35
941.899	155.82
942.069	71.93
942.238	76.58
942.408	33.18
942.577	95.18
942.747	50.42
942.916	-17
943.086	45.97
943.255	86.07
943.425	63.21
943.594	48.29
943.763	0.05
943.933	39.77
944.102	-15.84
944.271	39.19
944.441	68.44
944.61	53.14
944.779	40.93
944.948	95.18
945.117	20.78
945.287	44.03
945.456	-14.68
945.625	53.72
945.794	67.86
945.963	32.4
946.132	56.04
946.301	19.04
946.47	70.77
946.639	-12.55
946.808	19.42
946.977	62.44
947.146	80.26
947.315	29.11
947.484	70.57
947.653	16.13
947.822	27.37
947.991	8.19
948.16	89.95
948.329	84.91
948.498	36.67
948.666	29.5
948.835	62.63
949.004	5.86
949.173	-14.1
949.341	33.76
949.51	35.89
949.679	64.95
949.847	87.62
950.016	113.2
950.185	109.71
950.353	42.67
950.522	29.11
950.69	77.35
950.859	9.15
951.028	80.65
951.196	32.99
951.365	14.19
951.533	26.59
951.701	84.52
951.87	44.42
952.038	-7.51
952.207	38.99
952.375	86.07
952.543	47.52
952.712	24.65
952.88	21.17
953.048	100.22
953.217	25.04
953.385	46.16
953.553	68.25
953.721	5.67
953.89	59.92
954.058	6.64
954.226	11.29
954.394	57.59
954.562	12.64
954.73	59.34
954.898	59.14
955.067	58.17
955.235	36.67
955.403	80.26
955.571	100.41
955.739	83.36
955.907	13.42
956.075	19.62
956.243	16.71
956.41	86.85
956.578	21.55
956.746	21.36
956.914	29.11
957.082	64.18
957.25	50.62
957.418	24.07
957.585	58.75
957.753	77.16
957.921	38.99
958.089	63.99
958.256	63.79
958.424	97.31
958.592	47.71
958.759	5.28
958.927	63.79
959.095	20.78
959.262	27.95
959.43	56.04
959.597	23.49
959.765	58.75
959.932	16.71
960.1	82.39
960.267	67.47
960.435	26.4
960.602	58.56
960.77	44.22
960.937	-11.77
961.104	47.32
961.272	12.45
961.439	37.83
961.606	59.14
961.774	63.4
961.941	27.75
962.108	60.69
962.275	65.15
962.443	86.07
962.61	72.7
962.777	109.9
962.944	58.75
963.111	35.7
963.278	88.4
963.446	75.8
963.613	55.65
963.78	68.25
963.947	64.57
964.114	66.31
964.281	132.38
964.448	111.26
964.615	36.67
964.782	63.6
964.949	96.53
965.116	82.2
965.282	103.32
965.449	79.68
965.616	15.16
965.783	103.9
965.95	69.99
966.117	-2.47
966.283	50.04
966.45	74.64
966.617	51
966.784	96.73
966.95	62.24
967.117	98.08
967.284	35.5
967.45	53.52
967.617	116.68
967.784	93.24
967.95	109.13
968.117	66.5
968.283	108.74
968.45	146.33
968.616	106.22
968.783	114.17
968.949	84.33
969.116	96.34
969.282	63.6
969.449	78.9
969.615	66.31
969.781	28.92
969.948	57.79
970.114	28.72
970.28	119.4
970.447	78.9
970.613	95.76
970.779	37.83
970.945	88.01
971.112	71.54
971.278	72.51
971.444	74.06
971.61	97.89
971.776	51
971.942	93.43
972.108	84.52
972.275	66.5
972.441	79.48
972.607	122.11
972.773	60.3
972.939	68.44
973.105	77.16
973.271	38.22
973.437	59.14
973.602	64.95
973.768	71.73
973.934	80.07
974.1	104.09
974.266	11.29
974.432	77.35
974.598	42.48
974.763	115.33
974.929	38.99
975.095	121.72
975.261	8.96
975.426	5.67
975.592	50.42
975.758	118.43
975.923	27.56
976.089	41.9
976.255	103.51
976.42	69.41
976.586	86.65
976.751	64.76
976.917	165.51
977.082	84.91
977.248	33.95
977.413	25.04
977.579	29.89
977.744	72.9
977.91	41.51
978.075	39.19
978.24	90.33
978.406	58.37
978.571	63.6
978.736	18.84
978.902	59.92
979.067	8.57
979.232	-1.11
979.397	70.38
979.563	135.09
979.728	34.15
979.893	44.42
980.058	46.55
980.223	114.17
980.388	58.56
980.554	40.74
980.719	49.45
980.884	51.78
981.049	121.53
981.214	61.66
981.379	74.64
981.544	45.97
981.709	72.51
981.874	69.02
982.039	69.6
982.204	73.28
982.368	36.28
982.533	60.5
982.698	83.75
982.863	92.85
983.028	62.44
983.193	63.02
983.357	70.57
983.522	63.21
983.687	68.05
983.852	64.95
984.016	53.33
984.181	73.28
984.346	73.28
984.51	64.18
984.675	71.15
984.839	71.93
985.004	54.69
985.168	101.18
985.333	83.36
985.498	50.23
985.662	64.76
985.827	55.46
985.991	54.49
986.155	78.13
986.32	69.8
986.484	91.5
986.649	89.56
986.813	33.95
986.977	68.05
987.142	66.31
987.306	27.95
987.47	27.75
987.634	58.37
987.799	82.39
987.963	70.38
988.127	77.93
988.291	114.55
988.455	59.14
988.62	83.94
988.784	90.92
988.948	66.89
989.112	40.93
989.276	95.76
989.44	53.14
989.604	46.55
989.768	64.95
989.932	146.91
990.096	44.03
990.26	31.63
990.424	16.13
990.588	48.68
990.752	119.01
990.915	91.3
991.079	40.74
991.243	39.38
991.407	88.98
991.571	45.39
991.734	62.63
991.898	83.75
992.062	130.25
992.226	61.08
992.389	45
992.553	50.04
992.717	35.7
992.88	38.22
993.044	37.83
993.207	65.34
993.371	62.63
993.535	73.67
993.698	64.57
993.862	72.12
994.025	85.49
994.189	43.06
994.352	54.88
994.515	94.21
994.679	95.57
994.842	40.93
995.006	102.35
995.169	38.41
995.332	40.35
995.496	77.74
995.659	3.92
995.822	54.3
995.985	41.51
996.149	97.7
996.312	40.15
996.475	90.14
996.638	50.62
996.801	105.64
996.964	98.08
997.128	30.08
997.291	40.35
997.454	72.32
997.617	24.27
997.78	100.99
997.943	28.53
998.106	76.19
998.269	24.27
998.432	58.56
998.595	57.4
998.758	4.5
998.92	37.44
999.083	0.24
999.246	27.17
999.409	-4.6
999.572	0.63
999.735	34.15
999.897	75.8
1000.06	9.54
1000.223	18.45
1000.386	57.79
1000.548	74.25
1000.711	61.66
1000.874	50.62
1001.036	28.92
1001.199	84.13
1001.361	21.55
1001.524	25.24
1001.687	96.92
1001.849	30.66
1002.012	23.1
1002.174	46.35
1002.337	57.4
1002.499	51.39
1002.661	91.69
1002.824	16.13
1002.986	22.72
1003.149	56.24
1003.311	14.39
1003.473	95.57
1003.636	11.29
1003.798	84.72
1003.96	78.9
1004.123	39.96
1004.285	28.53
1004.447	54.1
1004.609	34.54
1004.771	93.43
1004.933	0.82
1005.096	28.92
1005.258	-4.6
1005.42	0.63
1005.582	66.12
1005.744	30.85
1005.906	-1.11
1006.068	41.9
1006.23	10.9
1006.392	-11
1006.554	19.81
1006.716	72.32
1006.878	59.53
1007.04	7.02
1007.202	41.9
1007.363	54.88
1007.525	34.92
1007.687	63.99
1007.849	59.72
1008.011	-11.19
1008.172	-13.13
1008.334	21.17
1008.496	69.22
1008.658	0.24
1008.819	-1.5
1008.981	15.74
1009.143	22.52
1009.304	28.14
1009.466	50.23
1009.627	68.83
1009.789	121.14
1009.95	41.32
1010.112	33.37
1010.273	49.45
1010.435	17.49
1010.596	0.05
1010.758	15.35
1010.919	32.99
1011.081	-8.48
1011.242	24.46
1011.403	53.72
1011.565	17.49
1011.726	51.2
1011.887	6.05
1012.049	15.35
1012.21	53.33
1012.371	76.19
1012.532	-53.81
1012.693	39.77
1012.855	21.17
1013.016	3.92
1013.177	33.95
1013.338	20.2
1013.499	67.47
1013.66	46.74
1013.821	55.85
1013.982	32.4
1014.143	33.76
1014.304	6.25
1014.465	60.89
1014.626	58.17
1014.787	5.67
1014.948	105.64
1015.109	-41.41
1015.27	63.99
1015.431	19.04
1015.592	-10.61
1015.752	70.77
1015.913	25.62
1016.074	36.67
1016.235	22.91
1016.395	36.86
1016.556	35.7
1016.717	12.45
1016.877	84.72
1017.038	-2.66
1017.199	33.76
1017.359	21.36
1017.52	40.93
1017.681	6.83
1017.841	26.01
1018.002	20.39
1018.162	-10.8
1018.323	66.5
1018.483	16.52
1018.644	33.76
1018.804	-4.41
1018.964	-12.16
1019.125	-12.93
1019.285	40.54
1019.446	3.15
1019.606	-20.1
1019.766	-19.91
1019.926	54.3
1020.087	50.62
1020.247	-7.31
1020.407	29.3
1020.567	51.97
1020.728	38.02
1020.888	-21.85
1021.048	5.28
1021.208	1.79
1021.368	3.54
1021.528	50.04
1021.688	46.74
1021.848	44.03
1022.008	5.86
1022.168	6.64
1022.328	39.96
1022.488	26.79
1022.648	20.39
1022.808	10.9
1022.968	26.98
1023.128	-9.06
1023.288	3.15
1023.448	28.72
1023.608	69.22
1023.767	34.34
1023.927	-21.07
1024.087	-25.72
1024.247	-1.89
1024.406	-8.09
1024.566	-12.93
1024.726	-11
1024.885	21.55
1025.045	47.9
1025.205	27.17
1025.364	-22.62
1025.524	31.82
1025.683	-5.18
1025.843	27.75
1026.003	21.36
1026.162	71.15
1026.321	39.96
1026.481	28.92
1026.64	5.47
1026.8	37.25
1026.959	-2.86
1027.119	36.47
1027.278	-12.16
1027.437	-11
1027.597	19.04
1027.756	35.5
1027.915	21.55
1028.074	31.05
1028.234	23.49
1028.393	16.13
1028.552	7.02
1028.711	-30.76
1028.87	44.22
1029.03	-10.22
1029.189	12.64
1029.348	-41.8
1029.507	9.35
1029.666	-1.11
1029.825	-24.94
1029.984	-8.67
1030.143	40.15
1030.302	-10.8
1030.461	-33.28
1030.62	-3.44
1030.779	20.78
1030.938	-3.44
1031.097	-23.59
1031.255	-2.28
1031.414	46.94
1031.573	64.76
1031.732	-41.41
1031.891	6.64
1032.049	60.5
1032.208	11.29
1032.367	11.09
1032.525	24.65
1032.684	-6.54
1032.843	13.61
1033.001	-32.69
1033.16	127.73
1033.319	15.74
1033.477	35.89
1033.636	-11
1033.794	-45.87
1033.953	33.57
1034.111	45.97
1034.27	-2.08
1034.428	22.52
1034.587	-6.15
1034.745	1.02
1034.903	20.59
1035.062	22.91
1035.22	-15.45
1035.378	44.61
1035.537	1.99
1035.695	26.79
1035.853	1.79
1036.011	2.18
1036.17	18.65
1036.328	-64.08
1036.486	1.6
1036.644	19.23
1036.802	-64.47
1036.96	-13.9
1037.119	-0.73
1037.277	0.05
1037.435	-21.65
1037.593	-13.51
1037.751	8.57
1037.909	35.12
1038.067	35.12
