Data from oakcork_FLMT105791__185__17-31-58-046.txt Node

Date: Mon Mar 20 17:31:58 GMT 2023
User: antho
Spectrometer: FLMT10579
Trigger mode: 0
Integration Time (sec): 1.000000E-1
Scans to average: 10
Electric dark correction enabled: true
Nonlinearity correction enabled: false
Boxcar width: 0
XAxis mode: Wavelengths
Number of Pixels in Spectrum: 3648
>>>>>Begin Spectral Data<<<<<
345.248	-146.7
345.464	-146.7
345.681	-146.7
345.898	-163.94
346.114	-156
346.331	-21.73
346.548	30.39
346.764	-7.39
346.981	-8.56
347.197	-22.12
347.414	27.29
347.631	-14.18
347.847	40.27
348.064	-8.56
348.28	25.35
348.497	-57.38
348.713	16.63
348.93	30.97
349.146	32.13
349.363	-17.66
349.579	9.27
349.796	1.32
350.012	-23.48
350.229	26.12
350.445	17.21
350.661	-8.36
350.878	11.79
351.094	13.92
351.311	11.98
351.527	25.15
351.743	-0.23
351.96	41.04
352.176	27.87
352.392	25.15
352.609	29.22
352.825	-8.17
353.041	13.34
353.257	6.36
353.474	9.85
353.69	3.07
353.906	0.94
354.122	-26.77
354.339	48.21
354.555	19.34
354.771	4.04
354.987	65.45
355.203	75.34
355.42	8.3
355.636	4.81
355.852	-13.21
356.068	10.04
356.284	-31.81
356.5	36
356.716	9.07
356.932	21.86
357.148	30.19
357.364	8.11
357.58	41.62
357.796	72.43
358.012	76.89
358.228	38.72
358.444	-42.27
358.66	48.21
358.876	31.74
359.092	-19.79
359.308	16.24
359.524	29.42
359.74	-26.77
359.956	-9.72
360.172	9.07
360.388	53.83
360.604	-10.11
360.819	70.49
361.035	21.67
361.251	51.7
361.467	7.33
361.683	35.62
361.898	25.74
362.114	58.48
362.33	17.6
362.546	53.25
362.762	20.5
362.977	38.72
363.193	-11.85
363.409	48.21
363.624	-6.43
363.84	13.34
364.056	-12.04
364.271	26.12
364.487	8.69
364.703	-11.08
364.918	-20.96
365.134	13.34
365.35	-1.39
365.565	99.94
365.781	17.21
365.996	38.33
366.212	79.21
366.427	23.8
366.643	5.97
366.858	8.69
367.074	-10.88
367.289	53.25
367.505	89.67
367.72	-41.49
367.936	-11.46
368.151	33.68
368.367	18.95
368.582	43.17
368.798	20.5
369.013	50.54
369.228	12.95
369.444	11.98
369.659	69.33
369.874	19.54
370.09	65.26
370.305	-44.79
370.52	-11.85
370.736	64.29
370.951	9.27
371.166	58.67
371.381	73.59
371.597	47.44
371.812	-7.39
372.027	-24.64
372.242	14.5
372.458	82.7
372.673	0.55
372.888	21.67
373.103	34.65
373.318	100.91
373.533	30
373.749	38.72
373.964	-42.08
374.179	49.76
374.394	4.62
374.609	49.76
374.824	-31.81
375.039	75.53
375.254	14.11
375.469	44.14
375.684	20.12
375.899	55.57
376.114	13.34
376.329	22.44
376.544	67.39
376.759	38.72
376.974	4.04
377.189	20.12
377.404	4.81
377.619	25.54
377.834	-22.7
378.049	-30.06
378.264	-17.08
378.478	-7.01
378.693	-10.69
378.908	30.77
379.123	22.25
379.338	74.95
379.553	18.18
379.767	29.61
379.982	21.47
380.197	40.85
380.412	43.95
380.626	32.71
380.841	80.95
381.056	47.44
381.271	79.02
381.485	-1.58
381.7	-14.76
381.915	19.54
382.129	8.88
382.344	38.72
382.559	24.77
382.773	38.14
382.988	-44.79
383.202	40.27
383.417	7.52
383.632	107.69
383.846	24.77
384.061	38.52
384.275	32.52
384.49	45.5
384.704	45.5
384.919	10.04
385.133	12.56
385.348	44.72
385.562	-20.57
385.777	59.84
385.991	0.74
386.206	5.97
386.42	14.69
386.634	48.4
386.849	50.54
387.063	40.07
387.277	-10.49
387.492	6.56
387.706	-37.23
387.92	-16.11
388.135	62.55
388.349	32.9
388.563	17.21
388.778	14.11
388.992	41.24
389.206	43.37
389.42	100.14
389.635	14.11
389.849	49.76
390.063	81.92
390.277	35.04
390.491	83.86
390.706	36.39
390.92	28.64
391.134	35.23
391.348	40.85
391.562	-12.63
391.776	19.73
391.99	13.34
392.205	40.27
392.419	5.39
392.633	13.53
392.847	82.12
393.061	-2.94
393.275	97.04
393.489	6.36
393.703	31.35
393.917	64.29
394.131	14.89
394.345	47.82
394.559	67
394.773	12.56
394.986	40.85
395.2	30.39
395.414	12.37
395.628	-6.62
395.842	47.24
396.056	23.6
396.27	-31.42
396.484	43.17
396.697	52.86
396.911	95.29
397.125	36.59
397.339	44.92
397.553	43.17
397.766	113.12
397.98	64.68
398.194	80.95
398.408	19.73
398.621	71.27
398.835	45.89
399.049	33.68
399.262	77.27
399.476	75.34
399.69	67.59
399.903	108.08
400.117	42.2
400.331	48.4
400.544	43.37
400.758	118.73
400.971	63.32
401.185	83.28
401.398	0.74
401.612	85.8
401.826	81.15
402.039	75.14
402.253	8.88
402.466	67.78
402.68	34.65
402.893	73.98
403.106	46.27
403.32	47.44
403.533	53.83
403.747	64.49
403.96	44.53
404.174	70.3
404.387	30.58
404.6	34.45
404.814	108.47
405.027	73.59
405.24	68.36
405.454	54.22
405.667	70.49
405.88	9.07
406.094	63.13
406.307	102.46
406.52	59.25
406.733	13.34
406.947	21.28
407.16	111.95
407.373	81.73
407.586	38.91
407.799	35.23
408.012	91.61
408.226	50.54
408.439	89.67
408.652	7.33
408.865	63.13
409.078	99.55
409.291	74.95
409.504	50.73
409.717	82.31
409.93	73.98
410.143	54.02
410.357	0.55
410.57	21.47
410.783	30.77
410.996	47.24
411.209	57.32
411.421	98
411.634	72.82
411.847	26.12
412.06	54.99
412.273	63.52
412.486	59.45
412.699	128.23
412.912	44.34
413.125	83.67
413.338	49.18
413.55	87.54
413.763	55.38
413.976	61.19
414.189	55.96
414.402	29.42
414.615	114.28
414.827	11.21
415.04	84.64
415.253	84.05
415.466	71.46
415.678	124.35
415.891	47.24
416.104	49.18
416.316	57.12
416.529	37.94
416.742	102.07
416.954	98.59
417.167	88.12
417.38	53.25
417.592	125.52
417.805	41.04
418.017	42.4
418.23	77.85
418.442	48.99
418.655	51.31
418.868	75.53
419.08	94.32
419.293	116.41
419.505	79.4
419.718	67.78
419.93	102.07
420.142	61.97
420.355	113.12
420.567	116.8
420.78	79.02
420.992	76.3
421.205	131.13
421.417	17.4
421.629	66.42
421.842	49.57
422.054	22.64
422.266	98.39
422.479	98.78
422.691	56.74
422.903	100.52
423.115	43.75
423.328	77.27
423.54	75.34
423.752	40.46
423.964	47.44
424.177	75.72
424.389	56.15
424.601	175.7
424.813	102.07
425.025	110.98
425.238	73.79
425.45	65.26
425.662	48.6
425.874	372.54
426.086	98.97
426.298	80.57
426.51	84.05
426.722	85.6
426.934	60.03
427.146	97.04
427.358	50.15
427.57	123.58
427.782	67.2
427.994	75.72
428.206	83.86
428.418	46.47
428.63	105.56
428.842	99.75
429.054	122.03
429.266	117.96
429.478	55.57
429.69	89.48
429.902	24.19
430.114	112.92
430.325	99.75
430.537	69.52
430.749	74.56
430.961	36.78
431.173	73.59
431.384	92.97
431.596	34.26
431.808	77.47
432.02	116.22
432.231	126.1
432.443	136.56
432.655	89.29
432.867	63.52
433.078	94.52
433.29	145.86
433.502	103.23
433.713	131.52
433.925	98.2
434.136	135.01
434.348	68.36
434.56	22.64
434.771	169.5
434.983	36
435.194	60.22
435.406	61.77
435.617	104.59
435.829	151.48
436.04	114.28
436.252	120.87
436.463	185
436.675	111.76
436.886	112.92
437.098	101.1
437.309	154.58
437.521	85.99
437.732	104.2
437.943	91.22
438.155	103.82
438.366	54.22
438.578	147.8
438.789	104.01
439	116.8
439.211	86.57
439.423	102.46
439.634	137.14
439.845	123.38
440.057	125.71
440.268	149.35
440.479	74.75
440.69	105.37
440.902	97.42
441.113	104.98
441.324	116.99
441.535	129.78
441.746	163.1
441.957	96.84
442.168	91.03
442.38	124.16
442.591	141.4
442.802	88.9
443.013	91.61
443.224	131.13
443.435	107.3
443.646	113.89
443.857	78.05
444.068	88.51
444.279	84.83
444.49	169.11
444.701	110.6
444.912	213.48
445.123	121.64
445.334	161.17
445.545	119.51
445.756	126.1
445.967	97.81
446.178	130.17
446.388	136.56
446.599	143.92
446.81	150.12
447.021	140.24
447.232	146.63
447.443	182.09
447.653	149.73
447.864	171.63
448.075	144.89
448.286	163.1
448.496	145.86
448.707	197.59
448.918	118.35
449.129	214.45
449.339	106.33
449.55	183.45
449.761	140.24
449.971	192.16
450.182	140.24
450.393	181.32
450.603	137.53
450.814	168.92
451.024	153.61
451.235	189.65
451.446	185.19
451.656	181.32
451.867	137.33
452.077	146.05
452.288	216.96
452.498	207.66
452.709	121.06
452.919	181.32
453.13	156.13
453.34	193.13
453.55	115.83
453.761	182.28
453.971	173.18
454.182	196.62
454.392	177.44
454.602	206.89
454.813	168.14
455.023	163.68
455.233	119.51
455.444	179.96
455.654	103.82
455.864	158.07
456.075	157.87
456.285	165.43
456.495	145.47
456.705	196.23
456.916	197.78
457.126	187.52
457.336	178.99
457.546	123.77
457.756	119.9
457.967	212.51
458.177	128.81
458.387	179.38
458.597	130.94
458.807	154.19
459.017	144.12
459.227	164.46
459.437	180.15
459.647	173.57
459.857	197.59
460.068	153.03
460.278	187.9
460.488	203.4
460.698	220.65
460.908	162.52
461.117	137.92
461.327	159.42
461.537	156.52
461.747	189.07
461.957	185.58
462.167	277.22
462.377	209.21
462.587	184.03
462.797	202.82
463.007	204.95
463.216	191.39
463.426	205.34
463.636	216.38
463.846	151.09
464.056	165.62
464.265	202.43
464.475	178.99
464.685	200.11
464.895	201.66
465.104	200.5
465.314	195.26
465.524	170.47
465.733	175.7
465.943	247.77
466.153	227.43
466.362	207.86
466.572	206.89
466.782	172.4
466.991	186.55
467.201	244.28
467.41	172.6
467.62	192.36
467.829	198.17
468.039	229.36
468.249	182.09
468.458	159.42
468.668	238.66
468.877	203.98
469.086	231.5
469.296	236.53
469.505	152.83
469.715	246.03
469.924	196.04
470.134	245.64
470.343	236.53
470.552	178.99
470.762	198.56
470.971	179.96
471.18	218.51
471.39	232.27
471.599	178.8
471.808	238.66
472.018	196.81
472.227	226.46
472.436	259.01
472.645	206.89
472.855	205.73
473.064	233.05
473.273	227.23
473.482	236.34
473.691	261.72
473.901	253.39
474.11	233.43
474.319	294.08
474.528	240.6
474.737	278.96
474.946	247.19
475.155	240.02
475.364	267.34
475.573	229.17
475.783	228.78
475.992	264.43
476.201	295.82
476.41	255.91
476.619	206.5
476.828	244.28
477.037	226.26
477.245	240.41
477.454	273.54
477.663	232.66
477.872	232.08
478.081	297.37
478.29	196.62
478.499	323.91
478.708	268.11
478.917	325.85
479.125	250.48
479.334	296.4
479.543	269.86
479.752	273.93
479.961	268.7
480.169	289.43
480.378	240.02
480.587	348.71
480.796	252.42
481.004	257.85
481.213	313.45
481.422	290.01
481.63	262.3
481.839	317.71
482.048	367.7
482.256	282.84
482.465	319.65
482.674	327.4
482.882	307.44
483.091	357.04
483.299	305.31
483.508	316.94
483.716	294.46
483.925	305.89
484.134	265.01
484.342	308.03
484.551	329.73
484.759	315.78
484.967	332.83
485.176	317.71
485.384	337.86
485.593	375.64
485.801	316.36
486.01	295.82
486.218	337.86
486.426	252.03
486.635	306.09
486.843	310.54
487.051	347.36
487.26	291.56
487.468	308.03
487.676	337.09
487.885	308.22
488.093	304.54
488.301	339.03
488.509	334.38
488.717	365.18
488.926	333.79
489.134	337.09
489.342	350.46
489.55	293.88
489.758	350.46
489.967	343.48
490.175	435.9
490.383	309.58
490.591	411.49
490.799	290.59
491.007	387.66
491.215	341.35
491.423	346
491.631	357.82
491.839	363.44
492.047	403.74
492.255	305.7
492.463	310.54
492.671	352.01
492.879	403.16
493.087	370.8
493.295	386.69
493.503	381.26
493.711	393.47
493.919	413.62
494.127	408.58
494.334	430.47
494.542	354.72
494.75	371.96
494.958	386.3
495.166	413.81
495.374	398.51
495.581	408.77
495.789	382.62
495.997	424.08
496.205	367.51
496.412	397.34
496.62	358.98
496.828	405.29
497.035	359.95
497.243	431.64
497.451	432.41
497.658	397.15
497.866	371.57
498.074	456.44
498.281	379.32
498.489	481.62
498.696	401.8
498.904	409.16
499.112	403.16
499.319	479.3
499.527	416.33
499.734	458.37
499.942	404.9
500.149	411.68
500.357	420.4
500.564	371.77
500.771	417.69
500.979	417.88
501.186	391.53
501.394	412.26
501.601	401.8
501.808	444.04
502.016	415.56
502.223	413.62
502.43	424.08
502.638	409.36
502.845	387.66
503.052	472.13
503.26	414.01
503.467	496.54
503.674	440.55
503.881	446.56
504.089	523.47
504.296	484.72
504.503	396.96
504.71	425.63
504.917	405.48
505.125	438.61
505.332	435.9
505.539	457.99
505.746	489.57
505.953	494.6
506.16	463.41
506.367	521.92
506.574	508.75
506.781	526.19
506.988	463.02
507.195	476.78
507.402	453.92
507.609	525.22
507.816	431.83
508.023	465.93
508.23	464.57
508.437	424.08
508.644	499.45
508.851	531.8
509.058	508.55
509.265	506.04
509.472	502.94
509.679	605.23
509.885	487.82
510.092	505.26
510.299	490.54
510.506	506.04
510.713	521.73
510.92	503.32
511.126	525.8
511.333	579.85
511.54	516.3
511.746	588.57
511.953	544.01
512.16	584.7
512.367	511.65
512.573	503.9
512.78	508.36
512.987	529.48
513.193	561.06
513.4	480.46
513.606	505.45
513.813	556.22
514.02	521.54
514.226	604.46
514.433	601.17
514.639	513.98
514.846	562.03
515.052	546.53
515.259	583.92
515.465	558.93
515.672	548.47
515.878	636.43
516.085	552.15
516.291	593.42
516.497	535.1
516.704	580.05
516.91	538.2
517.117	523.47
517.323	493.83
517.529	515.53
517.736	514.56
517.942	555.44
518.148	527.15
518.354	574.23
518.561	566.29
518.767	571.91
518.973	598.84
519.179	594.77
519.386	559.51
519.592	583.73
519.798	571.91
520.004	642.63
520.21	576.75
520.417	648.63
520.623	636.23
520.829	674.79
521.035	647.86
521.241	639.91
521.447	686.61
521.653	738.34
521.859	667.23
522.065	671.11
522.271	791.04
522.477	726.71
522.683	730.59
522.889	688.74
523.095	683.31
523.301	688.93
523.507	678.47
523.713	735.82
523.919	698.04
524.125	754.61
524.331	699.2
524.537	784.64
524.742	744.54
524.948	792.59
525.154	774.96
525.36	841.8
525.566	767.01
525.772	831.92
525.977	747.83
526.183	812.54
526.389	807.12
526.595	739.89
526.8	754.23
527.006	745.89
527.212	707.92
527.417	706.18
527.623	706.18
527.829	782.32
528.034	759.84
528.24	790.84
528.446	750.54
528.651	864.08
528.857	830.37
529.062	872.61
529.268	808.86
529.473	832.11
529.679	803.44
529.884	896.82
530.09	897.99
530.295	896.82
530.501	893.92
530.706	880.36
530.912	831.34
531.117	875.71
531.323	866.79
531.528	899.54
531.733	896.63
531.939	854.2
532.144	894.69
532.35	887.14
532.555	904.77
532.76	891.2
532.966	928.21
533.171	882.87
533.376	862.72
533.581	848.39
533.787	884.62
533.992	890.04
534.197	957.08
534.402	890.24
534.607	892.17
534.813	1000.67
535.018	906.32
535.223	887.33
535.428	943.32
535.633	961.54
535.838	980.13
536.043	944.49
536.249	1031.28
536.454	928.4
536.659	987.69
536.864	935.38
537.069	963.28
537.274	984.78
537.479	934.8
537.684	952.43
537.889	926.47
538.094	1049.5
538.299	969.48
538.504	1002.42
538.708	1007.45
538.913	995.44
539.118	983.82
539.323	992.34
539.528	946.23
539.733	981.49
539.938	979.36
540.142	1003.19
540.347	1012.1
540.552	940.22
540.757	989.82
540.962	974.9
541.166	926.85
541.371	969.09
541.576	956.11
541.781	864.47
541.985	997.77
542.19	992.15
542.395	1041.55
542.599	1039.42
542.804	1023.92
543.008	1077.78
543.213	980.72
543.418	989.43
543.622	1003.38
543.827	984.4
544.031	1064.22
544.236	1046.4
544.44	1002.8
544.645	1084.37
544.849	997.57
545.054	1017.72
545.258	1079.14
545.463	1078.95
545.667	1025.67
545.872	1060.15
546.076	1057.05
546.281	1068.48
546.485	1021.98
546.689	1063.45
546.894	1080.5
547.098	1031.48
547.302	1030.51
547.507	1028.38
547.711	1055.5
547.915	1127.77
548.119	1032.45
548.324	1017.92
548.528	1091.73
548.732	1039.81
548.936	1059.38
549.141	1096
549.345	1047.17
549.549	1061.7
549.753	1074.1
549.957	1121.18
550.161	1135.33
550.366	1047.95
550.57	1041.94
550.774	1058.22
550.978	1038.07
551.182	1094.25
551.386	1048.33
551.59	1046.98
551.794	1034
551.998	1082.24
552.202	1054.92
552.406	1042.52
552.61	1095.03
552.814	1081.66
553.018	1109.56
553.222	1089.41
553.426	1093.67
553.63	1148.7
553.833	1060.73
554.037	1025.08
554.241	1114.4
554.445	1055.31
554.649	1070.42
554.853	1052.79
555.056	1138.81
555.26	1109.56
555.464	1083.4
555.668	1087.08
555.871	1115.95
556.075	1121.96
556.279	1067.9
556.483	1052.02
556.686	1076.43
556.89	1077.78
557.094	1069.26
557.297	1017.33
557.501	1109.95
557.704	1026.05
557.908	1116.53
558.112	995.63
558.315	1080.88
558.519	1038.65
558.722	1037.29
558.926	1071.2
559.129	1006.1
559.333	974.32
559.536	980.72
559.74	1005.32
559.943	996.02
560.147	964.83
560.35	1030.32
560.553	1019.85
560.757	968.7
560.96	1053.37
561.164	966.38
561.367	1068.29
561.57	997.77
561.774	1030.32
561.977	1015.78
562.18	942.35
562.384	1077.78
562.587	1004.93
562.79	975.29
562.993	961.54
563.197	1021.4
563.4	1059.57
563.603	1046.78
563.806	1078.36
564.009	995.05
564.212	1003.77
564.416	950.3
564.619	978.97
564.822	943.52
565.025	1010.55
565.228	954.95
565.431	985.37
565.634	846.06
565.837	933.25
566.04	936.15
566.243	931.7
566.446	845.09
566.649	934.02
566.852	899.73
567.055	924.34
567.258	944.87
567.461	996.02
567.664	947.39
567.867	856.72
568.07	890.24
568.273	925.89
568.475	928.02
568.678	884.81
568.881	891.98
569.084	913.68
569.287	827.27
569.489	872.22
569.692	911.94
569.895	908.84
570.098	843.93
570.3	830.95
570.503	789.49
570.706	827.46
570.909	804.02
571.111	785.03
571.314	817.97
571.516	790.84
571.719	837.54
571.922	814.87
572.124	797.82
572.327	835.41
572.529	749.19
572.732	757.13
572.935	789.49
573.137	852.26
573.34	789.29
573.542	836.37
573.745	801.69
573.947	798.79
574.15	770.31
574.352	776.51
574.554	839.86
574.757	743.38
574.959	756.16
575.162	756.36
575.364	753.64
575.566	852.07
575.769	735.43
575.971	733.3
576.173	653.28
576.376	775.15
576.578	772.05
576.78	804.41
576.982	684.28
577.185	744.93
577.387	704.05
577.589	688.35
577.791	739.89
577.993	768.18
578.196	708.7
578.398	737.76
578.6	762.56
578.802	688.35
579.004	706.56
579.206	711.41
579.408	731.94
579.61	726.91
579.812	739.69
580.014	693.58
580.216	710.05
580.418	687
580.62	670.14
580.822	660.65
581.024	704.63
581.226	744.54
581.428	699.4
581.63	773.21
581.832	687.58
582.034	752.09
582.236	722.84
582.438	725.36
582.64	776.12
582.841	771.47
583.043	808.67
583.245	709.86
583.447	742.02
583.649	715.86
583.85	733.11
584.052	775.73
584.254	681.38
584.456	759.26
584.657	664.52
584.859	688.74
585.061	711.41
585.262	685.06
585.464	667.62
585.666	724.78
585.867	718.58
586.069	753.06
586.27	720.13
586.472	713.54
586.674	672.08
586.875	675.76
587.077	682.15
587.278	729.23
587.48	672.85
587.681	801.5
587.883	709.28
588.084	635.07
588.285	649.99
588.487	671.3
588.688	696.1
588.89	642.05
589.091	609.69
589.292	659.68
589.494	650.57
589.695	617.05
589.896	551.37
590.098	533.55
590.299	598.65
590.5	544.01
590.702	578.3
590.903	603.49
591.104	654.25
591.305	629.65
591.507	657.35
591.708	644.76
591.909	604.07
592.11	668.98
592.311	645.53
592.512	595.16
592.714	565.13
592.915	601.55
593.116	633.13
593.317	635.46
593.518	603.88
593.719	612.4
593.92	640.69
594.121	653.48
594.322	611.82
594.523	645.34
594.724	611.82
594.925	638.75
595.126	644.37
595.327	631.2
595.528	607.56
595.729	657.16
595.929	615.89
596.13	618.41
596.331	652.31
596.532	601.94
596.733	655.8
596.934	643.79
597.135	656.58
597.335	641.27
597.536	592.64
597.737	617.25
597.938	596.13
598.138	619.96
598.339	607.95
598.54	618.99
598.74	615.7
598.941	606.2
599.142	655.22
599.342	613.37
599.543	604.46
599.744	610.47
599.944	628.48
600.145	578.3
600.345	643.98
600.546	697.65
600.746	661.81
600.947	682.93
601.147	637.01
601.348	664.33
601.548	575.59
601.749	628.87
601.949	562.8
602.15	605.23
602.35	616.86
602.551	674.6
602.751	588.77
602.951	555.44
603.152	570.55
603.352	645.15
603.552	619.96
603.753	633.33
603.953	633.52
604.153	609.11
604.354	594.97
604.554	599.81
604.754	623.45
604.954	563.38
605.155	618.8
605.355	590.9
605.555	664.13
605.755	631.58
605.955	603.88
606.155	612.79
606.356	603.1
606.556	627.71
606.756	629.06
606.956	554.08
607.156	674.98
607.356	563.77
607.556	614.15
607.756	606.78
607.956	644.76
608.156	588.77
608.356	585.28
608.556	621.32
608.756	601.55
608.956	548.08
609.156	586.83
609.356	556.02
609.556	557.38
609.755	607.37
609.955	547.69
610.155	582.57
610.355	589.73
610.555	582.76
610.755	566.48
610.954	519.21
611.154	584.89
611.354	593.22
611.554	542.65
611.753	551.37
611.953	525.99
612.153	577.53
612.352	583.34
612.552	535.87
612.752	505.65
612.951	555.63
613.151	549.63
613.351	503.9
613.55	530.25
613.75	569.58
613.949	532.58
614.149	569.39
614.348	534.32
614.548	519.02
614.747	482.79
614.947	530.84
615.146	486.27
615.346	563.97
615.545	535.49
615.745	522.12
615.944	550.98
616.144	516.89
616.343	533.16
616.542	499.25
616.742	539.75
616.941	532
617.14	492.09
617.34	515.72
617.539	504.87
617.738	490.92
617.938	557.57
618.137	529.29
618.336	443.07
618.535	511.27
618.734	515.92
618.934	519.4
619.133	524.25
619.332	521.73
619.531	474.65
619.73	488.6
619.929	545.75
620.128	535.87
620.328	544.01
620.527	485.3
620.726	475.04
620.925	523.86
621.124	497.32
621.323	542.65
621.522	466.9
621.721	443.46
621.92	477.55
622.119	525.22
622.318	466.7
622.517	500.42
622.715	499.06
622.914	425.44
623.113	495.57
623.312	464.77
623.511	516.5
623.71	489.95
623.909	475.42
624.107	532.19
624.306	426.79
624.505	472.52
624.704	456.63
624.902	472.9
625.101	518.63
625.3	493.05
625.499	440.36
625.697	452.17
625.896	412.46
626.095	490.73
626.293	426.41
626.492	458.76
626.69	455.85
626.889	438.42
627.088	497.12
627.286	428.54
627.485	429.7
627.683	428.54
627.882	483.37
628.08	388.62
628.279	443.65
628.477	489.37
628.676	415.17
628.874	452.17
629.073	446.94
629.271	428.34
629.469	472.9
629.668	413.23
629.866	406.26
630.065	435.9
630.263	443.46
630.461	432.22
630.66	442.87
630.858	445.59
631.056	458.95
631.254	480.65
631.453	429.51
631.651	481.62
631.849	469.61
632.047	448.49
632.245	435.51
632.444	448.49
632.642	426.02
632.84	469.61
633.038	425.05
633.236	424.47
633.434	411.49
633.632	417.88
633.83	402.19
634.028	466.7
634.227	427.57
634.425	494.41
634.623	441.13
634.821	444.62
635.019	416.72
635.216	433.96
635.414	488.02
635.612	442.87
635.81	435.51
636.008	504.87
636.206	432.8
636.404	482.2
636.602	409.74
636.8	430.09
636.997	470.19
637.195	455.08
637.393	441.71
637.591	483.37
637.789	460.5
637.986	420.79
638.184	427.37
638.382	456.05
638.58	460.89
638.777	482.98
638.975	431.06
639.173	445.39
639.37	456.05
639.568	442.1
639.765	441.52
639.963	416.14
640.161	475.23
640.358	456.82
640.556	386.49
640.753	374.67
640.951	379.71
641.148	436.09
641.346	437.64
641.543	426.41
641.741	431.06
641.938	410.13
642.136	411.29
642.333	395.41
642.531	442.1
642.728	466.51
642.925	430.47
643.123	410.32
643.32	439
643.517	390.76
643.715	427.37
643.912	404.12
644.109	420.59
644.306	419.82
644.504	372.74
644.701	415.75
644.898	444.04
645.095	396.37
645.293	414.78
645.49	403.93
645.687	422.72
645.884	426.6
646.081	344.26
646.278	370.99
646.475	376.03
646.672	393.47
646.87	401.8
647.067	358.79
647.264	428.15
647.461	377.97
647.658	348.52
647.855	419.62
648.052	388.82
648.249	309.38
648.446	365.57
648.642	368.09
648.839	367.51
649.036	360.34
649.233	326.63
649.43	319.84
649.627	315
649.824	365.37
650.021	332.24
650.217	338.64
650.414	339.99
650.611	378.16
650.808	375.06
651.004	352.01
651.201	365.37
651.398	438.22
651.595	352.98
651.791	339.8
651.988	360.34
652.185	340.38
652.381	371.77
652.578	347.36
652.775	345.61
652.971	345.23
653.168	362.47
653.364	381.65
653.561	323.72
653.757	315.58
653.954	351.23
654.15	307.06
654.347	386.88
654.543	350.46
654.74	311.9
654.936	302.21
655.133	344.26
655.329	332.24
655.525	358.21
655.722	343.87
655.918	315.39
656.115	356.66
656.311	285.74
656.507	292.14
656.704	284
656.9	297.56
657.096	313.45
657.292	274.31
657.489	338.83
657.685	329.14
657.881	277.41
658.077	312.87
658.273	284
658.47	386.11
658.666	314.03
658.862	313.26
659.058	305.31
659.254	348.71
659.45	290.01
659.646	337.48
659.842	318.49
660.038	340.38
660.234	337.48
660.43	317.13
660.626	386.88
660.822	336.89
661.018	333.21
661.214	327.79
661.41	308.99
661.606	339.99
661.802	356.46
661.998	320.81
662.194	287.68
662.39	321.78
662.586	322.36
662.781	332.44
662.977	323.33
663.173	335.93
663.369	305.7
663.564	319.26
663.76	339.99
663.956	318.29
664.152	341.93
664.347	250.48
664.543	300.08
664.739	317.33
664.934	280.32
665.13	232.08
665.326	347.55
665.521	309.96
665.717	272.57
665.912	273.93
666.108	230.33
666.304	290.59
666.499	300.08
666.695	229.36
666.89	280.32
667.086	345.23
667.281	283.81
667.477	337.28
667.672	280.71
667.867	279.74
668.063	299.5
668.258	244.86
668.454	280.13
668.649	352.39
668.844	281.48
669.04	322.75
669.235	278.77
669.43	269.28
669.626	228.01
669.821	255.71
670.016	223.94
670.211	281.09
670.407	243.7
670.602	286.33
670.797	280.9
670.992	302.99
671.187	245.64
671.382	318.49
671.578	266.56
671.773	296.59
671.968	223.94
672.163	281.29
672.358	296.79
672.553	254.55
672.748	252.42
672.943	346.39
673.138	263.08
673.333	301.24
673.528	252.81
673.723	292.14
673.918	264.24
674.113	238.66
674.308	355.49
674.503	301.63
674.698	267.15
674.892	283.03
675.087	285.94
675.282	286.52
675.477	231.88
675.672	300.08
675.867	250.87
676.061	238.28
676.256	228.78
676.451	240.02
676.646	271.6
676.84	261.72
677.035	234.4
677.23	210.18
677.424	271.02
677.619	299.69
677.814	278.19
678.008	287.29
678.203	204.95
678.397	244.86
678.592	286.71
678.787	303.38
678.981	234.79
679.176	308.61
679.37	260.36
679.565	226.07
679.759	243.9
679.954	269.28
680.148	307.06
680.342	323.91
680.537	272.96
680.731	272.96
680.926	287.68
681.12	303.18
681.314	256.88
681.509	273.15
681.703	261.33
681.897	290.59
682.092	277.8
682.286	259.4
682.48	312.68
682.674	322.17
682.869	265.79
683.063	258.23
683.257	353.56
683.451	239.83
683.645	243.9
683.839	300.66
684.034	264.82
684.228	289.62
684.422	234.6
684.616	260.36
684.81	300.66
685.004	286.91
685.198	282.45
685.392	309.77
685.586	236.73
685.78	280.9
685.974	314.42
686.168	300.08
686.362	307.83
686.556	249.32
686.75	256.68
686.944	246.41
687.138	277.8
687.331	195.65
687.525	240.41
687.719	200.11
687.913	208.25
688.107	247.19
688.301	228.2
688.494	288.07
688.688	230.14
688.882	196.81
689.076	206.5
689.269	260.17
689.463	312.09
689.657	258.04
689.85	251.84
690.044	229.17
690.238	251.65
690.431	253
690.625	265.4
690.818	283.03
691.012	266.76
691.205	283.23
691.399	244.48
691.593	251.84
691.786	353.36
691.98	331.66
692.173	318.49
692.366	321.59
692.56	309.58
692.753	338.44
692.947	291.94
693.14	367.12
693.333	340.58
693.527	275.09
693.72	333.99
693.914	308.22
694.107	308.03
694.3	352.78
694.493	323.91
694.687	384.56
694.88	323.14
695.073	401.61
695.266	385.91
695.46	343.87
695.653	392.11
695.846	399.09
696.039	337.67
696.232	383.01
696.425	386.11
696.618	399.67
696.812	406.64
697.005	442.1
697.198	502.94
697.391	431.64
697.584	468.45
697.777	487.44
697.97	454.5
698.163	494.41
698.356	442.29
698.549	534.32
698.742	504.49
698.935	503.32
699.127	545.95
699.32	496.74
699.513	487.82
699.706	511.46
699.899	523.86
700.092	512.82
700.285	573.65
700.477	485.5
700.67	546.72
700.863	580.63
701.056	647.28
701.248	604.46
701.441	627.32
701.634	590.9
701.826	637.98
702.019	572.49
702.212	641.85
702.404	603.49
702.597	595.16
702.79	594.58
702.982	634.49
703.175	688.93
703.367	689.13
703.56	679.83
703.752	735.63
703.945	699.59
704.137	734.85
704.33	760.23
704.522	728.84
704.715	758.1
704.907	781.16
705.1	795.69
705.292	788.13
705.484	775.93
705.677	833.47
705.869	824.17
706.061	850.91
706.254	910.58
706.446	859.82
706.638	857.69
706.831	881.91
707.023	889.85
707.215	966.19
707.407	912.71
707.599	920.46
707.792	950.3
707.984	940.42
708.176	994.86
708.368	939.45
708.56	990.79
708.752	967.54
708.944	926.27
709.136	1027.41
709.329	1003.19
709.521	1107.81
709.713	1069.84
709.905	1100.06
710.097	1116.92
710.289	1045.43
710.481	1078.17
710.672	1094.06
710.864	1105.88
711.056	1181.63
711.248	1174.08
711.44	1153.73
711.632	1157.41
711.824	1193.64
712.016	1271.14
712.207	1251.96
712.399	1217.28
712.591	1275.02
712.783	1284.32
712.975	1272.11
713.166	1215.34
713.358	1277.15
713.55	1338.95
713.741	1316.29
713.933	1323.26
714.125	1354.45
714.316	1312.02
714.508	1402.12
714.7	1374.8
714.891	1393.59
715.083	1450.55
715.274	1423.04
715.466	1418.97
715.657	1442.61
715.849	1362.4
716.04	1456.95
716.232	1372.67
716.423	1452.49
716.615	1368.79
716.806	1354.07
716.998	1322.1
717.189	1298.07
717.381	1231.23
717.572	1217.48
717.763	1235.3
717.955	1203.91
718.146	1242.86
718.337	1205.66
718.528	1173.49
718.72	1115.95
718.911	1175.63
719.102	1148.5
719.293	1205.66
719.485	1187.64
719.676	1187.64
719.867	1177.18
720.058	1147.73
720.249	1171.94
720.44	1216.31
720.632	1260.1
720.823	1286.06
721.014	1378.48
721.205	1367.05
721.396	1434.86
721.587	1532.31
721.778	1529.6
721.969	1585.01
722.16	1652.63
722.351	1604.97
722.542	1764.62
722.733	1742.92
722.924	1690.22
723.115	1741.37
723.305	1687.51
723.496	1712.69
723.687	1610.59
723.878	1644.3
724.069	1627.44
724.26	1681.11
724.45	1604.58
724.641	1600.13
724.832	1646.63
725.023	1629.38
725.213	1647.21
725.404	1637.71
725.595	1659.8
725.785	1631.51
725.976	1674.72
726.167	1661.93
726.357	1693.32
726.548	1777.02
726.739	1723.54
726.929	1796.97
727.12	1827.2
727.31	1826.42
727.501	1757.06
727.691	1821.77
727.882	1802.2
728.072	1872.73
728.263	1857.42
728.453	1910.12
728.644	1899.85
728.834	1877.38
729.024	1889.97
729.215	1869.82
729.405	1913.42
729.596	1994.21
729.786	2014.55
729.976	2046.33
730.167	2031.21
730.357	2011.45
730.547	2004.86
730.737	2072.87
730.928	2080.62
731.118	2135.84
731.308	2057.95
731.498	2107.55
731.688	2193.77
731.879	2166.26
732.069	2239.3
732.259	2236.97
732.449	2291.42
732.639	2378.8
732.829	2350.32
733.019	2408.25
733.209	2516.16
733.399	2497.76
733.589	2570.8
733.779	2615.75
733.969	2593.86
734.159	2628.54
734.349	2682.2
734.539	2732.77
734.729	2746.72
734.919	2775.98
735.109	2813.95
735.299	2758.73
735.488	2807.37
735.678	2786.05
735.868	2788.77
736.058	2784.12
736.248	2811.43
736.437	2771.72
736.627	2762.22
736.817	2891.26
737.007	2851.15
737.196	2895.71
737.386	2875.95
737.576	2856.19
737.765	2927.1
737.955	2928.84
738.144	3029.21
738.334	3000.53
738.524	2965.46
738.713	2959.65
738.903	3036.57
739.092	3040.06
739.282	3044.51
739.471	3067.96
739.661	3025.33
739.85	3067.96
740.04	3081.71
740.229	3113.68
740.419	3151.46
740.608	3176.07
740.797	3142.16
740.987	3223.34
741.176	3243.88
741.365	3170.45
741.555	3175.87
741.744	3267.9
741.933	3221.79
742.123	3268.87
742.312	3269.26
742.501	3273.91
742.69	3296.38
742.88	3263.83
743.069	3345.01
743.258	3340.17
743.447	3343.85
743.636	3380.28
743.825	3367.88
744.014	3367.68
744.204	3372.72
744.393	3293.48
744.582	3422.71
744.771	3459.52
744.96	3399.84
745.149	3414.96
745.338	3422.51
745.527	3459.32
745.716	3407.21
745.905	3438.79
746.094	3471.53
746.283	3447.7
746.471	3445.96
746.66	3533.53
746.849	3489.55
747.038	3540.7
747.227	3482.38
747.416	3502.72
747.604	3475.79
747.793	3451.57
747.982	3516.09
748.171	3496.72
748.359	3537.02
748.548	3513.19
748.737	3486.84
748.926	3499.62
749.114	3452.54
749.303	3491.87
749.491	3513.77
749.68	3412.63
749.869	3487.61
750.057	3483.74
750.246	3506.41
750.434	3470.37
750.623	3473.47
750.811	3456.61
751	3535.66
751.188	3459.52
751.377	3517.06
751.565	3422.9
751.754	3438.21
751.942	3431.62
752.131	3501.37
752.319	3429.49
752.507	3418.44
752.696	3473.86
752.884	3464.94
753.072	3442.08
753.261	3483.16
753.449	3462.81
753.637	3493.62
753.825	3581.77
754.014	3486.45
754.202	3471.92
754.39	3507.76
754.578	3487.03
754.766	3455.64
754.955	3405.27
755.143	3541.67
755.331	3435.3
755.519	3436.07
755.707	3458.55
755.895	3446.54
756.083	3494.39
756.271	3353.34
756.459	3490.52
756.647	3453.51
756.835	3449.25
757.023	3454.48
757.211	3400.43
757.399	3420.96
757.587	3385.89
757.775	3382.6
757.963	3355.67
758.151	3381.44
758.339	3308.98
758.526	3331.84
758.714	3352.18
758.902	3197.77
759.09	3141
759.278	2978.44
759.465	2691.12
759.653	2360.97
759.841	2130.02
760.028	1844.25
760.216	1611.56
760.404	1466.25
760.591	1209.34
760.779	1015.2
760.967	920.27
761.154	753.06
761.342	773.21
761.529	793.36
761.717	832.11
761.905	807.7
762.092	872.61
762.28	814.87
762.467	817
762.655	747.06
762.842	788.52
763.029	782.51
763.217	808.67
763.404	814.87
763.592	826.88
763.779	786
763.966	842.77
764.154	883.07
764.341	936.35
764.528	942.16
764.716	988.85
764.903	1009.2
765.09	1128.93
765.277	1168.65
765.465	1328.3
765.652	1391.85
765.839	1426.14
766.026	1595.48
766.213	1661.93
766.4	1756.09
766.588	1943.45
766.775	1948.87
766.962	2050.01
767.149	2156.18
767.336	2271.27
767.523	2267.39
767.71	2406.7
767.897	2524.49
768.084	2620.4
768.271	2608.77
768.458	2701
768.645	2718.24
768.832	2712.24
769.019	2772.68
769.206	2784.31
769.392	2862.2
769.579	2985.23
769.766	2947.25
769.953	2919.74
770.14	2976.31
770.327	2996.66
770.513	3013.51
770.7	3101.28
770.887	3020.87
771.073	3070.47
771.26	3044.71
771.447	3050.13
771.634	3003.24
771.82	3104.57
772.007	2987.16
772.193	3034.63
772.38	3077.45
772.567	3062.34
772.753	3037.92
772.94	3098.18
773.126	3104.38
773.313	3073.19
773.499	3057.88
773.686	3136.74
773.872	3033.27
774.059	3094.89
774.245	3002.86
774.432	3023.59
774.618	2985.81
774.804	3030.17
774.991	3015.06
775.177	3049.74
775.363	3029.21
775.55	3011.96
775.736	3001.89
775.922	2992.97
776.109	2994.91
776.295	2981.16
776.481	3022.23
776.667	3038.89
776.853	2978.64
777.04	2955.39
777.226	2989.87
777.412	3020.68
777.598	2953.26
777.784	2944.15
777.97	2929.62
778.156	2991.42
778.342	2954.61
778.528	2953.64
778.715	2856.19
778.901	2927.88
779.087	2942.02
779.272	2928.84
779.458	2850.76
779.644	2881.57
779.83	2880.99
780.016	2980.58
780.202	2892.42
780.388	2862.78
780.574	2857.74
780.76	2875.18
780.946	2903.08
781.131	2867.81
781.317	2809.3
781.503	2812.01
781.689	2864.71
781.874	2931.17
782.06	2835.85
782.246	2844.56
782.432	2801.36
782.617	2814.53
782.803	2869.56
782.989	2799.42
783.174	2768.81
783.36	2748.08
783.545	2793.61
783.731	2756.41
783.916	2712.82
784.102	2788.18
784.288	2730.83
784.473	2731.22
784.659	2704.49
784.844	2789.54
785.029	2738.97
785.215	2741.3
785.4	2687.82
785.586	2766.1
785.771	2654.89
785.956	2712.43
786.142	2666.32
786.327	2687.05
786.512	2700.22
786.698	2664.19
786.883	2612.84
787.068	2629.31
787.254	2617.69
787.439	2620.21
787.624	2579.71
787.809	2587.07
787.994	2596.76
788.18	2661.09
788.365	2538.25
788.55	2604.32
788.735	2578.55
788.92	2581.07
789.105	2542.13
789.29	2544.84
789.475	2474.51
789.66	2511.51
789.845	2496.4
790.03	2494.66
790.215	2517.91
790.4	2542.51
790.585	2535.34
790.77	2497.37
790.955	2443.12
791.14	2505.31
791.325	2530.5
791.51	2421.23
791.695	2478.96
791.879	2455.33
792.064	2394.68
792.249	2515.39
792.434	2438.28
792.618	2457.85
792.803	2469.28
792.988	2455.91
793.173	2458.62
793.357	2475.48
793.542	2415.8
793.727	2466.56
793.911	2518.1
794.096	2459.98
794.281	2465.59
794.465	2559.56
794.65	2440.6
794.834	2536.7
795.019	2532.24
795.203	2538.06
795.388	2527.21
795.572	2561.69
795.757	2530.89
795.941	2539.03
796.126	2510.93
796.31	2458.43
796.494	2490.2
796.679	2463.08
796.863	2454.55
797.048	2563.24
797.232	2522.75
797.416	2513.06
797.601	2487.29
797.785	2578.74
797.969	2549.1
798.153	2484.39
798.338	2548.52
798.522	2541.35
798.706	2581.26
798.89	2537.67
799.074	2646.17
799.258	2599.67
799.443	2553.17
799.627	2533.21
799.811	2569.06
799.995	2535.34
800.179	2546
800.363	2528.95
800.547	2576.22
800.731	2547.74
800.915	2475.48
801.099	2520.62
801.283	2524.3
801.467	2536.31
801.651	2506.09
801.835	2557.43
802.019	2502.21
802.202	2538.44
802.386	2478.96
802.57	2477.8
802.754	2476.64
802.938	2491.75
803.121	2487.29
803.305	2546.58
803.489	2520.43
803.673	2524.11
803.856	2501.44
804.04	2455.71
804.224	2529.73
804.407	2496.59
804.591	2453.2
804.775	2479.93
804.958	2494.46
805.142	2587.66
805.326	2496.59
805.509	2532.05
805.693	2575.64
805.876	2552.01
806.06	2567.31
806.243	2561.69
806.427	2577.19
806.61	2622.34
806.794	2510.16
806.977	2566.92
807.16	2569.44
807.344	2570.61
807.527	2534.76
807.71	2518.1
807.894	2544.64
808.077	2540.96
808.26	2478.38
808.444	2469.08
808.627	2547.36
808.81	2449.32
808.993	2432.66
809.177	2451.06
809.36	2443.31
809.543	2468.89
809.726	2357.68
809.909	2397.98
810.092	2354.97
810.276	2317.77
810.459	2396.43
810.642	2355.74
810.825	2353.42
811.008	2323.77
811.191	2224.57
811.374	2263.52
811.557	2238.33
811.74	2317.18
811.923	2220.5
812.106	2172.46
812.289	2168
812.472	2161.99
812.654	2176.91
812.837	2151.53
813.02	2096.12
813.203	2055.24
813.386	1994.01
813.569	1950.61
813.751	1912.83
813.934	1938.41
814.117	1936.08
814.3	1865.17
814.482	1807.05
814.665	1781.09
814.848	1780.7
815.03	1714.63
815.213	1713.86
815.396	1699.32
815.578	1667.74
815.761	1641.2
815.943	1702.81
816.126	1616.01
816.309	1572.61
816.491	1527.66
816.674	1478.26
816.856	1590.24
817.039	1516.04
817.221	1621.44
817.403	1514.3
817.586	1549.95
817.768	1563.51
817.951	1473.22
818.133	1463.15
818.315	1496.28
818.498	1541.23
818.68	1602.84
818.862	1576.1
819.045	1618.92
819.227	1591.02
819.409	1572.23
819.591	1612.14
819.774	1562.73
819.956	1523.4
820.138	1613.88
820.32	1609.43
820.502	1650.89
820.684	1744.08
820.866	1703.78
821.048	1786.12
821.231	1794.84
821.413	1778.37
821.595	1761.52
821.777	1767.72
821.959	1767.52
822.141	1851.61
822.323	1675.88
822.505	1657.28
822.686	1583.27
822.868	1515.26
823.05	1415.1
823.232	1391.46
823.414	1352.52
823.596	1394.95
823.778	1373.44
823.96	1423.43
824.141	1455.78
824.323	1420.91
824.505	1490.47
824.687	1549.36
824.868	1603.03
825.05	1690.41
825.232	1716.76
825.413	1775.85
825.595	1718.12
825.777	1670.26
825.958	1724.12
826.14	1703.78
826.321	1773.72
826.503	1739.43
826.685	1734.39
826.866	1768.49
827.048	1744.27
827.229	1683.82
827.411	1652.05
827.592	1600.13
827.773	1633.64
827.955	1591.6
828.136	1585.01
828.318	1543.36
828.499	1562.54
828.68	1503.45
828.862	1544.33
829.043	1595.86
829.224	1595.09
829.406	1527.66
829.587	1517.78
829.768	1571.06
829.949	1556.15
830.131	1532.31
830.312	1606.33
830.493	1568.16
830.674	1591.6
830.855	1581.33
831.036	1552.66
831.218	1649.92
831.399	1630.93
831.58	1550.14
831.761	1549.17
831.942	1565.25
832.123	1582.3
832.304	1536.96
832.485	1542.39
832.666	1567.77
832.847	1588.69
833.028	1590.05
833.209	1572.81
833.389	1559.44
833.57	1510.42
833.751	1490.85
833.932	1603.03
834.113	1532.9
834.294	1545.1
834.475	1583.85
834.655	1618.34
834.836	1615.43
835.017	1606.71
835.198	1567
835.378	1593.93
835.559	1654.57
835.74	1604.39
835.92	1587.92
836.101	1554.01
836.281	1612.33
836.462	1586.56
836.643	1644.11
836.823	1659.22
837.004	1667.55
837.184	1668.71
837.365	1667.74
837.545	1685.18
837.726	1595.67
837.906	1691.77
838.087	1652.05
838.267	1651.28
838.448	1627.06
838.628	1640.62
838.808	1618.53
838.989	1671.81
839.169	1608.07
839.349	1680.14
839.53	1669.29
839.71	1685.96
839.89	1648.76
840.07	1677.43
840.251	1610.01
840.431	1672.01
840.611	1643.33
840.791	1640.81
840.971	1667.16
841.151	1613.11
841.332	1591.6
841.512	1666.58
841.692	1584.05
841.872	1637.33
842.052	1628.61
842.232	1659.99
842.412	1586.95
842.592	1595.67
842.772	1646.43
842.952	1634.03
843.132	1567.19
843.312	1622.21
843.492	1603.03
843.672	1632.29
843.851	1549.75
844.031	1591.6
844.211	1605.94
844.391	1594.7
844.571	1611.75
844.751	1615.43
844.93	1601.09
845.11	1586.18
845.29	1617.95
845.47	1584.82
845.649	1611.75
845.829	1611.36
846.009	1598.96
846.188	1602.45
846.368	1588.89
846.547	1558.66
846.727	1576.1
846.907	1538.71
847.086	1567
847.266	1644.88
847.445	1539.29
847.625	1535.41
847.804	1569.13
847.984	1560.02
848.163	1524.95
848.343	1536.96
848.522	1562.54
848.701	1553.82
848.881	1521.27
849.06	1536.58
849.239	1569.71
849.419	1525.73
849.598	1476.13
849.777	1455.98
849.957	1466.63
850.136	1416.07
850.315	1426.14
850.494	1412.97
850.674	1440.09
850.853	1486.4
851.032	1453.07
851.211	1482.52
851.39	1454.62
851.569	1368.99
851.748	1409.29
851.927	1438.73
852.107	1443.58
852.286	1401.34
852.465	1424.4
852.644	1443.38
852.823	1480.58
853.002	1447.45
853.181	1448.62
853.359	1437.96
853.538	1381.19
853.717	1424.01
853.896	1346.12
854.075	1311.44
854.254	1311.06
854.433	1196.16
854.611	1230.84
854.79	1221.74
854.969	1268.24
855.148	1279.47
855.327	1219.61
855.505	1293.62
855.684	1271.92
855.863	1311.83
856.041	1270.17
856.22	1325.59
856.399	1300.59
856.577	1412.77
856.756	1393.01
856.934	1461.6
857.113	1489.5
857.291	1402.5
857.47	1366.85
857.648	1390.69
857.827	1392.04
858.005	1419.94
858.184	1332.95
858.362	1431.95
858.541	1402.5
858.719	1379.45
858.898	1377.7
859.076	1371.31
859.254	1414.32
859.433	1360.46
859.611	1377.12
859.789	1339.73
859.967	1398.44
860.146	1434.08
860.324	1329.65
860.502	1350.58
860.68	1274.24
860.859	1305.82
861.037	1335.47
861.215	1362.01
861.393	1355.81
861.571	1306.41
861.749	1303.69
861.927	1320.74
862.105	1327.33
862.283	1311.83
862.461	1305.24
862.639	1292.84
862.817	1280.83
862.995	1334.5
863.173	1283.54
863.351	1315.51
863.529	1285.09
863.707	1347.67
863.885	1293.23
864.063	1262.62
864.241	1208.37
864.418	1335.27
864.596	1262.81
864.774	1230.26
864.952	1289.74
865.129	1284.51
865.307	1267.27
865.485	1197.52
865.663	1267.85
865.84	1199.26
866.018	1198.29
866.196	1088.25
866.373	1113.05
866.551	1098.32
866.728	1052.6
866.906	1087.28
867.084	1092.51
867.261	1165.94
867.439	1152.76
867.616	1164.39
867.794	1124.09
867.971	1184.73
868.149	1173.3
868.326	1239.56
868.503	1197.71
868.681	1171.75
868.858	1188.8
869.035	1121.18
869.213	1223.29
869.39	1164.97
869.567	1255.64
869.745	1166.33
869.922	1169.62
870.099	1208.95
870.276	1171.75
870.454	1192.09
870.631	1188.99
870.808	1159.74
870.985	1165.36
871.162	1234.14
871.339	1181.24
871.517	1134.55
871.694	1144.05
871.871	1166.33
872.048	1145.6
872.225	1149.47
872.402	1195
872.579	1149.47
872.756	1142.5
872.933	1099.29
873.11	1147.53
873.287	1162.45
873.463	1113.43
873.64	1101.81
873.817	1156.83
873.994	1122.54
874.171	1056.47
874.348	1097.16
874.524	1079.14
874.701	1101.81
874.878	1028.18
875.055	1119.44
875.231	1126.41
875.408	1138.81
875.585	1057.05
875.762	1089.99
875.938	1081.46
876.115	1049.5
876.291	1051.82
876.468	1094.45
876.645	1019.27
876.821	1030.12
876.998	1067.71
877.174	1072.94
877.351	1046.59
877.527	1028.57
877.704	1048.92
877.88	1057.05
878.057	1018.5
878.233	1107.23
878.409	1028.57
878.586	1079.33
878.762	1031.67
878.938	1038.65
879.115	979.94
879.291	1027.22
879.467	968.9
879.644	1003
879.82	1040.2
879.996	990.79
880.172	956.3
880.349	999.7
880.525	1016.95
880.701	971.22
880.877	972.77
881.053	972.97
881.229	984.98
881.405	1035.55
881.581	973.94
881.757	1003
881.933	1010.75
882.109	989.63
882.285	979.17
882.461	931.31
882.637	996.02
882.813	960.76
882.989	979.17
883.165	1076.43
883.341	936.74
883.517	1000.48
883.693	978.39
883.869	996.6
884.044	965.6
884.22	1017.14
884.396	1031.87
884.572	1021.4
884.747	1031.48
884.923	998.15
885.099	1004.35
885.275	1026.25
885.45	990.4
885.626	980.33
885.801	965.8
885.977	1006.29
886.153	914.07
886.328	987.11
886.504	957.85
886.679	983.04
886.855	938.87
887.03	1008.23
887.206	1020.43
887.381	1005.32
887.557	991.76
887.732	972.19
887.908	1001.45
888.083	1005.32
888.258	947.59
888.434	942.94
888.609	944.49
888.784	1037.1
888.96	945.26
889.135	976.07
889.31	935.19
889.485	981.68
889.661	991.37
889.836	1019.66
890.011	997.57
890.186	948.75
890.361	975.1
890.537	976.65
890.712	970.64
890.887	979.36
891.062	965.22
891.237	1034.19
891.412	984.98
891.587	992.34
891.762	1005.32
891.937	1033.22
892.112	936.15
892.287	937.12
892.462	959.6
892.637	906.51
892.812	880.55
892.987	923.37
893.161	888.3
893.336	898.76
893.511	879.97
893.686	908.45
893.861	902.25
894.035	868.92
894.21	881.71
894.385	841.02
894.56	856.72
894.734	790.26
894.909	821.07
895.084	811.57
895.258	769.92
895.433	795.69
895.608	762.17
895.782	744.34
895.957	752.29
896.131	741.83
896.306	684.09
896.48	679.25
896.655	692.23
896.829	611.43
897.004	672.85
897.178	626.35
897.353	636.04
897.527	693
897.701	678.66
897.876	587.41
898.05	661.61
898.224	647.28
898.399	715.28
898.573	635.65
898.747	552.53
898.921	626.16
899.096	507.59
899.27	526.96
899.444	539.36
899.618	537.23
899.792	540.33
899.967	578.88
900.141	607.95
900.315	530.84
900.489	560.09
900.663	559.51
900.837	554.86
901.011	500.8
901.185	618.41
901.359	592.25
901.533	578.69
901.707	575.4
901.881	572.49
902.055	531.03
902.229	574.43
902.403	614.34
902.576	558.35
902.75	587.6
902.924	687.38
903.098	620.93
903.272	652.31
903.446	712.96
903.619	663.36
903.793	716.25
903.967	683.12
904.14	713.35
904.314	720.71
904.488	704.63
904.661	732.53
904.835	715.48
905.009	736.01
905.182	786.58
905.356	746.09
905.529	711.6
905.703	677.89
905.876	682.93
906.05	647.86
906.223	632.55
906.397	591.67
906.57	559.32
906.744	573.85
906.917	572.68
907.09	583.34
907.264	561.64
907.437	561.06
907.61	517.85
907.784	515.92
907.957	538.39
908.13	507.2
908.304	523.47
908.477	489.76
908.65	518.82
908.823	477.55
908.996	536.65
909.17	505.84
909.343	486.08
909.516	518.44
909.689	505.07
909.862	469.22
910.035	492.28
910.208	480.46
910.381	483.95
910.554	552.15
910.727	494.6
910.9	459.73
911.073	488.21
911.246	505.07
911.419	525.99
911.592	508.94
911.765	473.1
911.938	478.14
912.11	487.05
912.283	494.8
912.456	534.9
912.629	508.75
912.802	468.25
912.974	444.42
913.147	421.37
913.32	379.13
913.493	409.36
913.665	401.41
913.838	419.62
914.01	418.07
914.183	439.58
914.356	414.97
914.528	495.57
914.701	482.01
914.873	475.62
915.046	427.57
915.218	392.31
915.391	327.4
915.563	368.86
915.736	402.96
915.908	446.36
916.081	419.82
916.253	417.69
916.425	447.72
916.598	460.7
916.77	413.42
916.942	387.85
917.115	329.14
917.287	385.91
917.459	376.61
917.632	357.24
917.804	351.04
917.976	406.84
918.148	386.49
918.32	402.77
918.493	437.84
918.665	461.47
918.837	421.95
919.009	494.41
919.181	497.12
919.353	470
919.525	455.27
919.697	450.43
919.869	449.46
920.041	506.62
920.213	568.03
920.385	481.62
920.557	494.99
920.729	486.27
920.901	484.34
921.073	473.29
921.244	450.04
921.416	490.54
921.588	461.28
921.76	451.21
921.932	521.92
922.103	458.76
922.275	449.27
922.447	472.32
922.619	397.54
922.79	415.17
922.962	444.23
923.134	464.77
923.305	401.22
923.477	385.52
923.648	387.66
923.82	397.54
923.991	346
924.163	350.46
924.335	388.82
924.506	369.44
924.677	406.64
924.849	362.86
925.02	385.91
925.192	399.28
925.363	419.04
925.535	371.38
925.706	350.07
925.877	410.32
926.049	372.16
926.22	398.89
926.391	395.79
926.562	434.54
926.734	365.37
926.905	384.75
927.076	322.56
927.247	352.98
927.419	327.59
927.59	309.96
927.761	339.22
927.932	284.58
928.103	315
928.274	292.53
928.445	269.08
928.616	286.91
928.787	265.01
928.958	276.45
929.129	272.96
929.3	270.05
929.471	237.31
929.642	208.05
929.813	137.72
929.984	264.43
930.155	178.22
930.326	226.85
930.496	158.07
930.667	129
930.838	168.33
931.009	129.58
931.18	168.53
931.35	135.2
931.521	160
931.692	73.4
931.863	81.54
932.033	123.19
932.204	122.22
932.374	116.99
932.545	78.44
932.716	144.7
932.886	144.31
933.057	50.15
933.227	51.31
933.398	139.08
933.568	55.77
933.739	33.1
933.909	42.01
934.08	95.1
934.25	7.33
934.421	18.76
934.591	79.21
934.761	34.45
934.932	2.49
935.102	56.15
935.272	41.04
935.443	38.72
935.613	22.83
935.783	43.56
935.953	23.8
936.123	166.98
936.294	8.88
936.464	22.25
936.634	35.23
936.804	-4.49
936.974	-25.03
937.144	34.84
937.314	46.08
937.484	13.72
937.655	11.21
937.825	72.04
937.995	10.43
938.165	69.91
938.334	41.24
938.504	74.95
938.674	55.57
938.844	69.72
939.014	118.73
939.184	114.67
939.354	143.53
939.524	118.15
939.694	73.59
939.863	68.75
940.033	143.34
940.203	142.76
940.373	107.11
940.542	116.6
940.712	82.31
940.882	96.26
941.051	132.1
941.221	104.78
941.391	120.28
941.56	85.8
941.73	60.42
941.899	182.87
942.069	84.83
942.238	88.7
942.408	90.45
942.577	96.84
942.747	46.27
942.916	67.78
943.086	50.34
943.255	94.13
943.425	96.26
943.594	64.87
943.763	2.49
943.933	32.13
944.102	0.16
944.271	29.22
944.441	73.01
944.61	47.44
944.779	53.64
944.948	145.47
945.117	41.24
945.287	34.07
945.456	18.57
945.625	48.4
945.794	78.24
945.963	47.44
946.132	95.68
946.301	61.77
946.47	84.05
946.639	-5.84
946.808	28.45
946.977	68.17
947.146	102.65
947.315	72.43
947.484	58.09
947.653	61.58
947.822	44.34
947.991	40.46
948.16	140.63
948.329	85.02
948.498	47.82
948.666	58.67
948.835	102.46
949.004	31.74
949.173	37.94
949.341	28.64
949.51	92.39
949.679	99.55
949.847	81.54
950.016	117.77
950.185	106.53
950.353	36.2
950.522	78.82
950.69	134.23
950.859	65.65
951.028	102.65
951.196	90.84
951.365	73.01
951.533	39.49
951.701	84.44
951.87	88.12
952.038	42.79
952.207	52.09
952.375	132.49
952.543	66.42
952.712	64.29
952.88	51.12
953.048	128.23
953.217	78.63
953.385	58.29
953.553	110.02
953.721	39.1
953.89	73.79
954.058	28.06
954.226	50.34
954.394	54.99
954.562	13.72
954.73	58.48
954.898	54.41
955.067	75.34
955.235	52.09
955.403	103.43
955.571	136.95
955.739	76.3
955.907	48.4
956.075	32.9
956.243	50.15
956.41	83.28
956.578	17.99
956.746	30.58
956.914	36.2
957.082	115.05
957.25	92
957.418	68.75
957.585	80.76
957.753	97.62
957.921	36.97
958.089	57.32
958.256	82.7
958.424	86.96
958.592	58.87
958.759	24.19
958.927	99.55
959.095	44.92
959.262	57.9
959.43	73.98
959.597	37.36
959.765	85.22
959.932	17.79
960.1	91.61
960.267	54.99
960.435	81.73
960.602	78.63
960.77	61.19
960.937	33.29
961.104	38.52
961.272	32.9
961.439	52.28
961.606	96.26
961.774	119.7
961.941	38.72
962.108	91.61
962.275	100.14
962.443	87.35
962.61	80.95
962.777	134.23
962.944	89.29
963.111	91.61
963.278	93.74
963.446	93.74
963.613	73.79
963.78	87.35
963.947	81.15
964.114	94.71
964.281	137.92
964.448	116.02
964.615	57.9
964.782	83.67
964.949	108.66
965.116	117.18
965.282	110.98
965.449	79.99
965.616	41.24
965.783	120.67
965.95	69.72
966.117	43.75
966.283	89.09
966.45	83.86
966.617	103.62
966.784	126.29
966.95	119.32
967.117	125.52
967.284	90.84
967.45	77.08
967.617	113.12
967.784	125.71
967.95	132.88
968.117	92
968.283	145.47
968.45	203.98
968.616	125.32
968.783	139.27
968.949	130.55
969.116	135.78
969.282	102.85
969.449	141.6
969.615	130.17
969.781	61.97
969.948	82.89
970.114	68.17
970.28	140.63
970.447	121.45
970.613	142.95
970.779	111.57
970.945	128.62
971.112	129.58
971.278	109.82
971.444	118.35
971.61	150.51
971.776	91.42
971.942	136.56
972.108	120.48
972.275	79.21
972.441	116.02
972.607	166.59
972.773	87.35
972.939	118.73
973.105	103.43
973.271	57.32
973.437	83.28
973.602	83.67
973.768	108.66
973.934	109.05
974.1	110.02
974.266	31.94
974.432	97.81
974.598	82.89
974.763	125.13
974.929	87.54
975.095	151.87
975.261	69.91
975.426	52.28
975.592	90.06
975.758	146.44
975.923	41.04
976.089	49.37
976.255	126.87
976.42	97.81
976.586	97.04
976.751	97.81
976.917	173.57
977.082	124.35
977.248	57.9
977.413	20.12
977.579	56.93
977.744	108.66
977.91	70.69
978.075	81.15
978.24	112.15
978.406	80.18
978.571	65.84
978.736	61.39
978.902	115.83
979.067	65.65
979.232	42.59
979.397	99.55
979.563	133.46
979.728	75.72
979.893	89.48
980.058	70.88
980.223	110.21
980.388	96.65
980.554	81.34
980.719	84.44
980.884	110.6
981.049	100.14
981.214	85.41
981.379	110.6
981.544	78.63
981.709	78.63
981.874	98.2
982.039	80.18
982.204	103.04
982.368	100.52
982.533	62.94
982.698	131.72
982.863	137.14
983.028	71.07
983.193	129.2
983.357	89.87
983.522	104.4
983.687	69.33
983.852	102.85
984.016	90.25
984.181	104.01
984.346	108.47
984.51	106.33
984.675	71.27
984.839	105.75
985.004	109.82
985.168	141.4
985.333	110.4
985.498	98.59
985.662	139.66
985.827	142.76
985.991	92
986.155	100.72
986.32	120.28
986.484	140.63
986.649	128.42
986.813	48.79
986.977	76.5
987.142	137.33
987.306	56.93
987.47	63.52
987.634	111.57
987.799	95.68
987.963	120.09
988.127	106.53
988.291	132.88
988.455	86.96
988.62	91.22
988.784	112.53
988.948	131.91
989.112	81.15
989.276	71.65
989.44	90.25
989.604	76.11
989.768	68.17
989.932	171.05
990.096	61.97
990.26	86.77
990.424	46.85
990.588	63.13
990.752	154.77
990.915	114.86
991.079	69.72
991.243	52.67
991.407	90.84
991.571	65.26
991.734	95.49
991.898	93.94
992.062	161.94
992.226	82.12
992.389	49.57
992.553	43.56
992.717	69.14
992.88	83.67
993.044	81.34
993.207	83.09
993.371	102.07
993.535	94.9
993.698	74.37
993.862	93.94
994.025	109.24
994.189	40.07
994.352	96.07
994.515	85.99
994.679	81.15
994.842	53.05
995.006	109.82
995.169	73.59
995.332	46.85
995.496	93.16
995.659	35.62
995.822	77.08
995.985	71.65
996.149	120.09
996.312	75.92
996.475	128.81
996.638	46.47
996.801	107.11
996.964	146.83
997.128	75.34
997.291	80.18
997.454	76.5
997.617	16.05
997.78	121.25
997.943	91.03
998.106	111.37
998.269	75.72
998.432	81.15
998.595	76.69
998.758	29.03
998.92	18.37
999.083	39.69
999.246	44.72
999.409	50.92
999.572	-3.13
999.735	48.6
999.897	62.94
1000.06	46.47
1000.223	63.71
1000.386	93.74
1000.548	89.09
1000.711	94.9
1000.874	61.97
1001.036	40.27
1001.199	106.33
1001.361	59.84
1001.524	66.23
1001.687	92.77
1001.849	28.25
1002.012	77.47
1002.174	62.74
1002.337	77.08
1002.499	66.42
1002.661	99.17
1002.824	33.68
1002.986	43.95
1003.149	61.19
1003.311	17.99
1003.473	123
1003.636	38.14
1003.798	79.99
1003.96	62.35
1004.123	59.06
1004.285	34.45
1004.447	57.51
1004.609	57.12
1004.771	113.89
1004.933	7.33
1005.096	21.86
1005.258	5.59
1005.42	49.57
1005.582	95.1
1005.744	43.75
1005.906	0.55
1006.068	51.89
1006.23	36.97
1006.392	-15.34
1006.554	28.06
1006.716	75.72
1006.878	49.57
1007.04	5.59
1007.202	25.93
1007.363	58.67
1007.525	62.74
1007.687	59.06
1007.849	106.53
1008.011	-2.74
1008.172	21.09
1008.334	36.97
1008.496	61.19
1008.658	15.27
1008.819	17.4
1008.981	4.42
1009.143	35.42
1009.304	47.63
1009.466	55.38
1009.627	99.55
1009.789	117.38
1009.95	43.56
1010.112	19.34
1010.273	56.74
1010.435	5.01
1010.596	41.62
1010.758	39.88
1010.919	46.47
1011.081	-8.17
1011.242	21.67
1011.403	76.3
1011.565	43.17
1011.726	61
1011.887	-8.56
1012.049	45.89
1012.21	85.41
1012.371	78.63
1012.532	-19.41
1012.693	32.71
1012.855	12.56
1013.016	48.4
1013.177	75.53
1013.338	34.65
1013.499	97.23
1013.66	73.79
1013.821	54.22
1013.982	44.53
1014.143	60.42
1014.304	20.12
1014.465	76.11
1014.626	58.48
1014.787	43.17
1014.948	145.08
1015.109	9.66
1015.27	63.52
1015.431	14.89
1015.592	16.82
1015.752	44.34
1015.913	42.4
1016.074	30.97
1016.235	15.66
1016.395	10.43
1016.556	46.27
1016.717	28.25
1016.877	77.27
1017.038	-3.33
1017.199	21.28
1017.359	10.82
1017.52	48.21
1017.681	35.62
1017.841	36.97
1018.002	28.64
1018.162	5.2
1018.323	96.07
1018.483	12.56
1018.644	5.97
1018.804	-29.87
1018.964	-13.79
1019.125	-1.19
1019.285	43.37
1019.446	7.52
1019.606	10.43
1019.766	-6.81
1019.926	61.97
1020.087	25.15
1020.247	20.5
1020.407	51.12
1020.567	78.44
1020.728	13.34
1020.888	-4.29
1021.048	15.66
1021.208	-2.55
1021.368	10.82
1021.528	51.12
1021.688	39.1
1021.848	44.53
1022.008	21.67
1022.168	14.5
1022.328	23.41
1022.488	49.76
1022.648	22.05
1022.808	19.92
1022.968	27.29
1023.128	11.01
1023.288	13.92
1023.448	54.22
1023.608	48.6
1023.767	54.99
1023.927	28.45
1024.087	-5.46
1024.247	-13.21
1024.406	-5.26
1024.566	5.97
1024.726	8.69
1024.885	13.72
1025.045	60.03
1025.205	37.17
1025.364	13.72
1025.524	10.62
1025.683	29.8
1025.843	11.98
1026.003	6.17
1026.162	66.23
1026.321	43.17
1026.481	12.95
1026.64	41.82
1026.8	16.24
1026.959	9.27
1027.119	17.99
1027.278	7.14
1027.437	-1.97
1027.597	36.39
1027.756	48.21
1027.915	33.49
1028.074	32.9
1028.234	12.76
1028.393	17.6
1028.552	-3.52
1028.711	-37.62
1028.87	29.22
1029.03	8.11
1029.189	8.3
1029.348	-31.03
1029.507	-8.17
1029.666	-6.43
1029.825	-18.63
1029.984	-15.92
1030.143	35.42
1030.302	8.11
1030.461	-52.34
1030.62	27.87
1030.779	35.23
1030.938	-6.81
1031.097	-41.11
1031.255	14.11
1031.414	57.32
1031.573	45.89
1031.732	-31.03
1031.891	21.09
1032.049	62.16
1032.208	14.11
1032.367	-19.21
1032.525	14.11
1032.684	3.46
1032.843	12.76
1033.001	-22.31
1033.16	130.36
1033.319	57.9
1033.477	4.42
1033.636	7.91
1033.794	-39.75
1033.953	14.5
1034.111	51.89
1034.27	-16.5
1034.428	34.07
1034.587	-19.99
1034.745	18.18
1034.903	25.15
1035.062	34.07
1035.22	4.23
1035.378	33.29
1035.537	-21.93
1035.695	51.5
1035.853	-3.71
1036.011	36.59
1036.17	28.25
1036.328	-49.24
1036.486	-3.33
1036.644	6.94
1036.802	-47.31
1036.96	-7.59
1037.119	-16.5
1037.277	-6.43
1037.435	-1.39
1037.593	-9.72
1037.751	-6.81
1037.909	36.78
1038.067	36.78
