Data from oakcork_FLMT105791__237__17-33-08-055.txt Node

Date: Mon Mar 20 17:33:08 GMT 2023
User: antho
Spectrometer: FLMT10579
Trigger mode: 0
Integration Time (sec): 1.000000E-1
Scans to average: 10
Electric dark correction enabled: true
Nonlinearity correction enabled: false
Boxcar width: 0
XAxis mode: Wavelengths
Number of Pixels in Spectrum: 3648
>>>>>Begin Spectral Data<<<<<
345.248	-137.03
345.464	-137.03
345.681	-137.03
345.898	-157.95
346.114	-163.57
346.331	-34.92
346.548	10.61
346.764	-1.79
346.981	-3.34
347.197	-0.05
347.414	9.25
347.631	-7.8
347.847	54.78
348.064	-2.76
348.28	6.73
348.497	-37.05
348.713	6.35
348.93	6.35
349.146	16.23
349.363	10.03
349.579	30.37
349.796	-36.86
350.012	-32.21
350.229	52.07
350.445	23.59
350.661	-45.58
350.878	-5.86
351.094	6.73
351.311	25.91
351.527	4.41
351.743	10.61
351.96	62.14
352.176	60.98
352.392	16.42
352.609	26.11
352.825	-18.65
353.041	7.12
353.257	8.86
353.474	41.22
353.69	20.88
353.906	26.49
354.122	-16.52
354.339	40.25
354.555	2.28
354.771	3.44
354.987	69.7
355.203	51.88
355.42	-6.05
355.636	-21.55
355.852	7.12
356.068	16.81
356.284	-18.07
356.5	54.98
356.716	21.07
356.932	8.48
357.148	38.7
357.364	24.36
357.58	47.03
357.796	68.15
358.012	31.14
358.228	23.01
358.444	-41.7
358.66	65.63
358.876	8.48
359.092	-5.86
359.308	-4.89
359.524	30.76
359.74	20.88
359.956	5.76
360.172	-10.32
360.388	45.48
360.604	9.83
360.819	94.11
361.035	30.95
361.251	38.51
361.467	-14.77
361.683	71.06
361.898	16.61
362.114	34.24
362.33	33.86
362.546	52.65
362.762	8.67
362.977	13.51
363.193	-14.19
363.409	51.1
363.624	-9.93
363.84	7.12
364.056	-0.82
364.271	33.08
364.487	33.28
364.703	23.39
364.918	-21.36
365.134	16.03
365.35	21.46
365.565	86.94
365.781	42.38
365.996	52.65
366.212	81.71
366.427	27.66
366.643	11.38
366.858	7.9
367.074	-1.21
367.289	42.96
367.505	114.26
367.72	-19.62
367.936	21.85
368.151	55.94
368.367	51.68
368.582	19.71
368.798	-1.99
369.013	96.44
369.228	33.08
369.444	55.17
369.659	64.47
369.874	41.99
370.09	71.25
370.305	-27.75
370.52	-1.99
370.736	60.21
370.951	35.41
371.166	88.3
371.381	76.48
371.597	35.79
371.812	-25.04
372.027	26.49
372.242	7.12
372.458	107.48
372.673	10.22
372.888	20.3
373.103	54.2
373.318	105.93
373.533	43.93
373.749	60.98
373.964	-32.02
374.179	84.23
374.394	23.78
374.609	59.63
374.824	28.82
375.039	75.13
375.254	16.81
375.469	62.14
375.684	27.08
375.899	72.41
376.114	18.55
376.329	43.35
376.544	55.56
376.759	64.28
376.974	-2.76
377.189	34.05
377.404	27.08
377.619	56.91
377.834	-2.95
378.049	1.5
378.264	-2.76
378.478	60.21
378.693	26.69
378.908	44.13
379.123	37.15
379.338	64.86
379.553	48
379.767	41.99
379.982	59.43
380.197	66.21
380.412	4.21
380.626	80.74
380.841	116.39
381.056	72.03
381.271	111.74
381.485	34.05
381.7	14.68
381.915	59.04
382.129	18.94
382.344	48.39
382.559	17.2
382.773	62.73
382.988	-30.66
383.202	26.3
383.417	-18.65
383.632	124.34
383.846	27.66
384.061	25.72
384.275	23.2
384.49	57.11
384.704	77.06
384.919	50.33
385.133	26.11
385.348	51.49
385.562	-2.95
385.777	99.15
385.991	33.66
386.206	36.57
386.42	37.93
386.634	98.38
386.849	75.13
387.063	53.43
387.277	27.08
387.492	56.91
387.706	29.4
387.92	-1.02
388.135	89.08
388.349	68.54
388.563	39.28
388.778	55.56
388.992	75.13
389.206	91.79
389.42	103.99
389.635	54.59
389.849	77.84
390.063	108.45
390.277	59.04
390.491	126.86
390.706	56.14
390.92	101.09
391.134	61.56
391.348	95.28
391.562	31.92
391.776	76.68
391.99	55.36
392.205	89.08
392.419	61.18
392.633	58.66
392.847	110
393.061	16.23
393.275	113.49
393.489	54.78
393.703	37.15
393.917	91.21
394.131	41.41
394.345	80.94
394.559	96.44
394.773	64.86
394.986	76.87
395.2	64.86
395.414	108.06
395.628	51.29
395.842	59.43
396.056	74.74
396.27	38.12
396.484	87.14
396.697	82.88
396.911	109.03
397.125	83.65
397.339	106.32
397.553	79.78
397.766	124.72
397.98	134.61
398.194	141.58
398.408	81.33
398.621	105.16
398.835	85.39
399.049	125.89
399.262	125.69
399.476	120.27
399.69	139.26
399.903	191.96
400.117	87.72
400.331	144.1
400.544	96.83
400.758	208.42
400.971	132.09
401.185	141.97
401.398	95.66
401.612	178.97
401.826	136.35
402.039	137.71
402.253	100.51
402.466	153.79
402.68	127.44
402.893	152.43
403.106	144.1
403.32	128.6
403.533	129.76
403.747	154.95
403.96	126.66
404.174	180.91
404.387	105.16
404.6	128.21
404.814	165.8
405.027	133.06
405.24	157.47
405.454	121.43
405.667	188.66
405.88	102.44
406.094	172.39
406.307	166.19
406.52	131.51
406.733	115.62
406.947	71.83
407.16	200.67
407.373	176.46
407.586	136.35
407.799	126.27
408.012	197.96
408.226	147.39
408.439	193.31
408.652	132.47
408.865	171.22
409.078	169.09
409.291	175.49
409.504	123.17
409.717	185.17
409.93	186.92
410.143	154.76
410.357	115.62
410.57	102.64
410.783	132.67
410.996	180.14
411.209	147.97
411.421	231.09
411.634	159.02
411.847	143.13
412.06	174.71
412.273	188.86
412.486	155.72
412.699	241.55
412.912	181.49
413.125	198.74
413.338	199.9
413.55	212.1
413.763	174.13
413.976	176.26
414.189	165.02
414.402	187.69
414.615	195.83
414.827	152.82
415.04	205.9
415.253	200.09
415.466	221.99
415.678	238.45
415.891	200.67
416.104	151.07
416.316	198.93
416.529	148.17
416.742	197.38
416.954	238.65
417.167	195.44
417.38	160.57
417.592	228.96
417.805	170.84
418.017	137.32
418.23	200.29
418.442	150.88
418.655	172.77
418.868	211.33
419.08	246.4
419.293	224.12
419.505	213.65
419.718	211.91
419.93	210.75
420.142	192.73
420.355	249.11
420.567	245.82
420.78	221.21
420.992	208.04
421.205	278.37
421.417	173.36
421.629	200.48
421.842	186.72
422.054	177.81
422.266	248.72
422.479	217.53
422.691	195.25
422.903	258.02
423.115	188.86
423.328	215.2
423.54	229.15
423.752	205.9
423.964	185.76
424.177	204.55
424.389	204.55
424.601	323.32
424.813	242.52
425.025	249.89
425.238	228.77
425.45	215.59
425.662	195.64
425.874	500.21
426.086	243.49
426.298	263.25
426.51	224.12
426.722	227.6
426.934	212.88
427.146	254.73
427.358	204.94
427.57	264.22
427.782	220.05
427.994	227.22
428.206	210.55
428.418	209.97
428.63	242.14
428.842	269.84
429.054	233.8
429.266	266.55
429.478	216.95
429.69	222.37
429.902	192.54
430.114	265.19
430.325	245.24
430.537	193.89
430.749	194.09
430.961	147.78
431.173	210.55
431.384	223.54
431.596	166.57
431.808	228.19
432.02	239.23
432.231	273.33
432.443	302.78
432.655	259.77
432.867	247.37
433.078	272.75
433.29	306.65
433.502	300.65
433.713	301.62
433.925	282.82
434.136	314.02
434.348	240
434.56	219.27
434.771	337.65
434.983	240.97
435.194	269.07
435.406	277.98
435.617	327.97
435.829	373.88
436.04	314.6
436.252	348.5
436.463	342.69
436.675	357.42
436.886	311.3
437.098	319.44
437.309	398.68
437.521	310.33
437.732	328.74
437.943	316.15
438.155	327.19
438.366	273.72
438.578	365.55
438.789	302.39
439	318.86
439.211	316.53
439.423	328.16
439.634	334.94
439.845	342.3
440.057	333.58
440.268	347.34
440.479	286.5
440.69	355.87
440.902	319.63
441.113	327.58
441.324	322.54
441.535	336.3
441.746	394.03
441.957	309.37
442.168	326.03
442.38	375.82
442.591	376.98
442.802	346.57
443.013	348.31
443.224	366.33
443.435	340.56
443.646	366.72
443.857	375.24
444.068	364
444.279	369.43
444.49	445.76
444.701	392.48
444.912	443.25
445.123	417.28
445.334	408.56
445.545	414.76
445.756	378.53
445.967	351.02
446.178	406.43
446.388	409.34
446.599	380.08
446.81	424.45
447.021	391.71
447.232	431.43
447.443	445.18
447.653	378.92
447.864	452.74
448.075	399.26
448.286	435.3
448.496	415.73
448.707	417.09
448.918	409.92
449.129	478.51
449.339	398.49
449.55	436.85
449.761	427.16
449.971	474.83
450.182	445.76
450.393	438.21
450.603	429.88
450.814	488.78
451.024	460.88
451.235	473.47
451.446	496.53
451.656	497.3
451.867	431.04
452.077	453.13
452.288	504.86
452.498	497.11
452.709	437.63
452.919	451.96
453.13	399.65
453.34	461.46
453.55	380.66
453.761	468.82
453.971	473.08
454.182	466.3
454.392	465.91
454.602	535.86
454.813	480.44
455.023	514.35
455.233	425.81
455.444	493.62
455.654	405.08
455.864	454.29
456.075	473.08
456.285	441.31
456.495	441.89
456.705	481.22
456.916	510.48
457.126	513.58
457.336	483.54
457.546	405.46
457.756	476.76
457.967	523.65
458.177	456.42
458.387	495.36
458.597	438.6
458.807	484.71
459.017	463.2
459.227	478.89
459.437	451.58
459.647	479.67
459.857	507.18
460.068	459.91
460.278	521.13
460.488	501.56
460.698	565.69
460.908	506.99
461.117	460.68
461.327	493.23
461.537	513.58
461.747	510.28
461.957	518.42
462.167	617.62
462.377	552.91
462.587	541.48
462.797	577.9
463.007	522.68
463.216	582.55
463.426	606.77
463.636	546.71
463.846	487.42
464.056	508.93
464.265	575.57
464.475	506.02
464.685	553.49
464.895	537.41
465.104	514.35
465.314	557.17
465.524	520.16
465.733	484.13
465.943	630.79
466.153	587.01
466.362	590.11
466.572	544.38
466.782	536.05
466.991	564.53
467.201	586.04
467.41	519
467.62	605.61
467.829	533.92
468.039	606.96
468.249	560.27
468.458	575.19
468.668	569.76
468.877	605.8
469.086	629.63
469.296	628.47
469.505	589.91
469.715	672.84
469.924	632.15
470.134	667.8
470.343	640.48
470.552	605.61
470.762	615.1
470.971	593.4
471.18	627.69
471.39	626.72
471.599	596.69
471.808	663.54
472.018	616.46
472.227	674.97
472.436	673.61
472.645	659.47
472.855	618.39
473.064	727.86
473.273	689.69
473.482	679.42
473.691	696.86
473.901	691.82
474.11	666.83
474.319	776.68
474.528	689.89
474.737	753.63
474.946	730.96
475.155	700.74
475.364	769.9
475.573	717.79
475.783	743.94
475.992	700.15
476.201	772.42
476.41	720.5
476.619	708.1
476.828	736.97
477.037	717.98
477.245	746.65
477.454	776.88
477.663	753.24
477.872	760.6
478.081	819.7
478.29	767.19
478.499	879.76
478.708	812.72
478.917	861.35
479.125	806.72
479.334	809.04
479.543	797.8
479.752	827.64
479.961	820.28
480.169	873.75
480.378	825.12
480.587	949.31
480.796	876.08
481.004	885.96
481.213	888.67
481.422	847.98
481.63	903.01
481.839	918.51
482.048	946.21
482.256	902.04
482.465	939.24
482.674	948.73
482.882	922.19
483.091	971.98
483.299	964.43
483.508	975.66
483.716	952.22
483.925	951.44
484.134	942.34
484.342	935.75
484.551	978.76
484.759	954.35
484.967	1000.66
485.176	1008.6
485.384	985.35
485.593	1004.34
485.801	954.16
486.01	947.18
486.218	898.94
486.426	814.46
486.635	873.56
486.843	866.97
487.051	884.8
487.26	901.84
487.468	926.45
487.676	985.93
487.885	944.86
488.093	973.34
488.301	1030.3
488.509	1037.47
488.717	1042.31
488.926	1033.21
489.134	1047.54
489.342	1044.64
489.55	982.06
489.758	1027.2
489.967	1080.67
490.175	1138.99
490.383	1099.85
490.591	1153.72
490.799	1078.35
491.007	1157.2
491.215	1112.06
491.423	1094.04
491.631	1114.19
491.839	1100.44
492.047	1133.18
492.255	1055.49
492.463	1058.97
492.671	1101.21
492.879	1116.52
493.087	1129.5
493.295	1146.16
493.503	1149.84
493.711	1175.61
493.919	1188.78
494.127	1184.13
494.334	1200.99
494.542	1067.5
494.75	1205.45
494.958	1172.32
495.166	1218.43
495.374	1219.2
495.581	1185.68
495.789	1157.59
495.997	1260.66
496.205	1188.4
496.412	1207.77
496.62	1169.8
496.828	1213.78
497.035	1210.1
497.243	1246.33
497.451	1222.69
497.658	1220.95
497.866	1241.1
498.074	1275.58
498.281	1234.9
498.489	1304.65
498.696	1228.89
498.904	1221.14
499.112	1203.9
499.319	1291.47
499.527	1268.22
499.734	1299.41
499.942	1207.58
500.149	1210.68
500.357	1208.55
500.564	1205.45
500.771	1221.72
500.979	1187.04
501.186	1176.19
501.394	1219.59
501.601	1170.57
501.808	1200.6
502.016	1228.31
502.223	1194.98
502.43	1231.22
502.638	1215.72
502.845	1200.02
503.052	1302.71
503.26	1272.68
503.467	1313.36
503.674	1264.73
503.881	1293.21
504.089	1325.38
504.296	1288.95
504.503	1229.28
504.71	1274.23
504.917	1206.03
505.125	1277.71
505.332	1290.11
505.539	1305.61
505.746	1364.13
505.953	1350.95
506.16	1325.76
506.367	1402.68
506.574	1365.29
506.781	1381.37
506.988	1338.74
507.195	1337.78
507.402	1346.88
507.609	1373.04
507.816	1310.85
508.023	1344.36
508.23	1261.25
508.437	1255.05
508.644	1329.83
508.851	1368.39
509.058	1375.17
509.265	1370.52
509.472	1408.88
509.679	1480.18
509.885	1388.34
510.092	1354.24
510.299	1333.32
510.506	1372.07
510.713	1383.69
510.92	1395.51
511.126	1426.71
511.333	1444.72
511.54	1420.12
511.746	1487.54
511.953	1455.38
512.16	1495.1
512.367	1415.66
512.573	1398.23
512.78	1416.83
512.987	1448.41
513.193	1435.81
513.4	1352.5
513.606	1407.33
513.813	1423.61
514.02	1460.61
514.226	1466.62
514.433	1445.31
514.639	1392.22
514.846	1396.48
515.052	1392.22
515.259	1452.67
515.465	1460.61
515.672	1426.32
515.878	1538.89
516.085	1429.61
516.291	1458.09
516.497	1433.1
516.704	1411.4
516.91	1392.41
517.117	1314.53
517.323	1287.6
517.529	1325.38
517.736	1315.88
517.942	1329.83
518.148	1324.41
518.354	1354.44
518.561	1368.19
518.767	1389.51
518.973	1399.97
519.179	1438.91
519.386	1429.42
519.592	1406.94
519.798	1411.59
520.004	1518.74
520.21	1496.84
520.417	1501.69
520.623	1579.38
520.829	1553.03
521.035	1563.88
521.241	1554.58
521.447	1573.76
521.653	1655.33
521.859	1537.34
522.065	1578.22
522.271	1661.72
522.477	1643.32
522.683	1633.43
522.889	1637.31
523.095	1606.89
523.301	1638.67
523.507	1609.41
523.713	1627.62
523.919	1579.77
524.125	1671.22
524.331	1645.83
524.537	1721.01
524.742	1712.68
524.948	1722.56
525.154	1733.8
525.36	1814.59
525.566	1730.31
525.772	1769.64
525.977	1679.16
526.183	1768.48
526.389	1722.17
526.595	1658.23
526.8	1683.81
527.006	1593.52
527.212	1572.21
527.417	1539.47
527.623	1594.49
527.829	1646.61
528.034	1698.73
528.24	1683.03
528.446	1694.46
528.651	1756.66
528.857	1754.14
529.062	1845.78
529.268	1804.9
529.473	1767.7
529.679	1792.11
529.884	1888.21
530.09	1823.5
530.295	1878.33
530.501	1840.36
530.706	1839.97
530.912	1826.41
531.117	1786.3
531.323	1856.63
531.528	1892.86
531.733	1918.44
531.939	1885.69
532.144	1907.01
532.35	1886.27
532.555	1904.49
532.76	1902.36
532.966	1854.69
533.171	1857.79
533.376	1793.86
533.581	1796.18
533.787	1848.88
533.992	1870.39
534.197	1903.91
534.402	1903.32
534.607	1876.2
534.813	1988.38
535.018	1912.82
535.223	1902.36
535.428	1959.12
535.633	1963.19
535.838	1975.79
536.043	1991.09
536.249	2067.23
536.454	1955.25
536.659	1990.32
536.864	1953.31
537.069	1966.68
537.274	1964.16
537.479	1997.29
537.684	1993.8
537.889	1897.51
538.094	2027.32
538.299	1994.39
538.504	2012.79
538.708	2028.49
538.913	2031.39
539.118	2028.49
539.323	2057.55
539.528	1974.43
539.733	2017.83
539.938	2035.65
540.142	2001.75
540.347	1962.8
540.552	1978.3
540.757	1951.57
540.962	1966.49
541.166	1893.25
541.371	1941.69
541.576	1980.24
541.781	1874.46
541.985	1993.42
542.19	1985.86
542.395	2097.46
542.599	2066.65
542.804	2043.02
543.008	2076.73
543.213	2033.52
543.418	2006.98
543.622	2043.02
543.827	2012.99
544.031	2105.6
544.236	2082.15
544.44	2099.98
544.645	2147.64
544.849	2105.6
545.054	2108.7
545.258	2152.29
545.463	2147.25
545.667	2036.04
545.872	2120.9
546.076	2130.2
546.281	2136.79
546.485	2048.83
546.689	2115.48
546.894	2125.16
547.098	2116.06
547.302	2087.58
547.507	2053.87
547.711	2120.9
547.915	2154.42
548.119	2093.58
548.324	2113.35
548.528	2158.49
548.732	2124.2
548.936	2143.76
549.141	2132.53
549.345	2123.61
549.549	2108.89
549.753	2138.53
549.957	2192.98
550.161	2201.89
550.366	2167.21
550.57	2124.97
550.774	2130.01
550.978	2126.91
551.182	2156.36
551.386	2124.97
551.59	2131.75
551.794	2102.11
551.998	2153.65
552.202	2153.06
552.406	2132.53
552.61	2141.83
552.814	2160.04
553.018	2179.03
553.222	2109.08
553.426	2151.13
553.63	2200.53
553.833	2176.7
554.037	2111.41
554.241	2131.36
554.445	2153.26
554.649	2185.42
554.853	2126.13
555.056	2198.4
555.26	2215.06
555.464	2176.51
555.668	2157.91
555.871	2177.67
556.075	2179.41
556.279	2132.72
556.483	2096.3
556.686	2147.83
556.89	2123.23
557.094	2118.19
557.297	2063.36
557.501	2151.71
557.704	2041.08
557.908	2155.58
558.112	2047.28
558.315	2163.53
558.519	2089.52
558.722	2057.35
558.926	2038.37
559.129	2018.02
559.333	2023.25
559.536	1952.34
559.74	1970.55
559.943	1964.94
560.147	1997.68
560.35	2002.72
560.553	2016.67
560.757	1992.45
560.96	2104.82
561.164	2020.93
561.367	2116.25
561.57	2033.72
561.774	1997.49
561.977	2003.88
562.18	2031.59
562.384	2095.52
562.587	1987.22
562.79	1994.77
562.993	2019.77
563.197	2025
563.4	2099.01
563.603	2077.12
563.806	2068.4
564.009	2031.58
564.212	2030.23
564.416	1980.63
564.619	2005.62
564.822	1944.79
565.025	2029.45
565.228	1988.77
565.431	1952.73
565.634	1892.09
565.837	1942.66
566.04	1928.32
566.243	1911.66
566.446	1833.96
566.649	1920.57
566.852	1870
567.055	1916.11
567.258	1937.04
567.461	1982.57
567.664	1964.74
567.867	1863.02
568.07	1909.91
568.273	1896.74
568.475	1932.39
568.678	1858.37
568.881	1859.34
569.084	1868.45
569.287	1759.37
569.489	1774.29
569.692	1861.28
569.895	1850.82
570.098	1788.43
570.3	1803.35
570.503	1722.36
570.706	1726.82
570.909	1747.36
571.111	1725.08
571.314	1671.41
571.516	1745.61
571.719	1774.87
571.922	1747.36
572.124	1745.42
572.327	1757.63
572.529	1695.82
572.732	1740.77
572.935	1749.88
573.137	1801.03
573.34	1709.77
573.542	1773.13
573.745	1733.02
573.947	1770.22
574.15	1705.12
574.352	1727.01
574.554	1810.91
574.757	1700.86
574.959	1695.82
575.162	1669.67
575.364	1661.33
575.566	1795.6
575.769	1665.02
575.971	1693.11
576.173	1610.57
576.376	1656.49
576.578	1715.97
576.78	1754.33
576.982	1597.2
577.185	1659.2
577.387	1640.22
577.589	1625.68
577.791	1678.19
577.993	1665.4
578.196	1642.35
578.398	1652.23
578.6	1660.56
578.802	1591.97
579.004	1607.67
579.206	1613.48
579.408	1651.26
579.61	1600.11
579.812	1706.48
580.014	1603.21
580.216	1646.8
580.418	1645.64
580.62	1647.77
580.822	1561.55
581.024	1650.29
581.226	1657.27
581.428	1647.97
581.63	1697.76
581.832	1628.78
582.034	1713.65
582.236	1659.2
582.438	1686.71
582.64	1704.93
582.841	1748.71
583.043	1781.07
583.245	1685.55
583.447	1700.66
583.649	1684.2
583.85	1715.78
584.052	1707.83
584.254	1666.95
584.456	1720.43
584.657	1607.08
584.859	1653.78
585.061	1673.93
585.262	1630.14
585.464	1649.13
585.666	1668.7
585.867	1604.18
586.069	1683.03
586.27	1653.58
586.472	1617.16
586.674	1608.25
586.875	1624.91
587.077	1647
587.278	1659.59
587.48	1622.58
587.681	1718.49
587.883	1654.94
588.084	1591.78
588.285	1581.32
588.487	1573.37
588.688	1583.45
588.89	1505.37
589.091	1448.41
589.292	1473.59
589.494	1435.23
589.695	1420.31
589.896	1358.89
590.098	1365.68
590.299	1433.29
590.5	1398.23
590.702	1454.22
590.903	1453.64
591.104	1513.89
591.305	1530.94
591.507	1531.33
591.708	1546.25
591.909	1511.18
592.11	1567.17
592.311	1530.55
592.512	1500.14
592.714	1421.67
592.915	1467.2
593.116	1464.87
593.317	1490.64
593.518	1469.91
593.719	1474.17
593.92	1567.75
594.121	1549.35
594.322	1507.69
594.523	1518.35
594.724	1443.17
594.925	1468.36
595.126	1485.02
595.327	1493.16
595.528	1501.69
595.729	1503.43
595.929	1493.55
596.13	1481.92
596.331	1489.87
596.532	1521.84
596.733	1574.92
596.934	1547.41
597.135	1550.9
597.335	1557.49
597.536	1488.71
597.737	1520.87
597.938	1499.94
598.138	1541.79
598.339	1513.5
598.54	1542.95
598.74	1492.39
598.941	1520.29
599.142	1578.22
599.342	1514.86
599.543	1509.63
599.744	1501.49
599.944	1505.76
600.145	1503.62
600.345	1516.6
600.546	1595.27
600.746	1566.59
600.947	1592.55
601.147	1497.62
601.348	1543.54
601.548	1478.24
601.749	1530.17
601.949	1475.72
602.15	1475.34
602.35	1465.26
602.551	1532.88
602.751	1504.21
602.951	1516.22
603.152	1440.07
603.352	1502.07
603.552	1519.7
603.753	1532.49
603.953	1534.62
604.153	1524.74
604.354	1530.75
604.554	1477.66
604.754	1525.9
604.954	1503.82
605.155	1555.94
605.355	1514.67
605.555	1547.99
605.755	1544.7
605.955	1504.98
606.155	1518.93
606.356	1506.53
606.556	1529.2
606.756	1554
606.956	1475.34
607.156	1541.21
607.356	1496.26
607.556	1493.16
607.756	1537.34
607.956	1567.37
608.156	1495.87
608.356	1457.71
608.556	1537.53
608.756	1477.66
608.956	1472.43
609.156	1434.46
609.356	1455.19
609.556	1451.51
609.755	1458.09
609.955	1464.68
610.155	1479.02
610.355	1482.51
610.555	1425.54
610.755	1462.16
610.954	1412.95
611.154	1479.21
611.354	1481.92
611.554	1463.52
611.753	1475.92
611.953	1433.29
612.153	1467.01
612.352	1462.16
612.552	1440.27
612.752	1373.81
612.951	1426.32
613.151	1437.17
613.351	1393.77
613.55	1402.68
613.75	1409.66
613.949	1402.29
614.149	1422.83
614.348	1403.26
614.548	1374.01
614.747	1354.63
614.947	1391.83
615.146	1352.89
615.346	1438.14
615.545	1411.79
615.745	1416.63
615.944	1428.06
616.144	1409.08
616.343	1391.64
616.542	1361.61
616.742	1359.09
616.941	1353.47
617.14	1268.8
617.34	1360.25
617.539	1351.92
617.738	1311.81
617.938	1405.78
618.137	1356.18
618.336	1339.13
618.535	1384.08
618.734	1390.86
618.934	1396.09
619.133	1391.44
619.332	1415.66
619.531	1356.38
619.73	1365.29
619.929	1424.57
620.128	1399
620.328	1446.08
620.527	1392.22
620.726	1376.91
620.925	1386.99
621.124	1356.18
621.323	1384.66
621.522	1322.66
621.721	1351.53
621.92	1298.06
622.119	1375.17
622.318	1342.04
622.517	1342.62
622.715	1359.09
622.914	1305.42
623.113	1354.44
623.312	1283.72
623.511	1341.46
623.71	1306.58
623.909	1317.24
624.107	1370.33
624.306	1277.91
624.505	1286.05
624.704	1308.71
624.902	1278.49
625.101	1329.83
625.3	1264.54
625.499	1262.41
625.697	1280.23
625.896	1284.11
626.095	1277.91
626.293	1225.02
626.492	1223.85
626.69	1278.49
626.889	1265.9
627.088	1299.03
627.286	1243.62
627.485	1232.38
627.683	1190.53
627.882	1244.58
628.08	1150.23
628.279	1191.3
628.477	1273.45
628.676	1148.1
628.874	1200.22
629.073	1189.56
629.271	1153.33
629.469	1235.67
629.668	1209.32
629.866	1172.32
630.065	1189.56
630.263	1263.38
630.461	1158.56
630.66	1218.82
630.858	1243.62
631.056	1251.36
631.254	1247.49
631.453	1170.96
631.651	1251.17
631.849	1182.78
632.047	1239.93
632.245	1185.88
632.444	1197.7
632.642	1220.17
632.84	1250.2
633.038	1195.95
633.236	1177.16
633.434	1187.82
633.632	1196.34
633.83	1218.04
634.028	1234.51
634.227	1202.73
634.425	1312.01
634.623	1219.59
634.821	1230.44
635.019	1228.5
635.216	1186.07
635.414	1240.9
635.612	1251.95
635.81	1195.18
636.008	1292.05
636.206	1232.57
636.404	1214.75
636.602	1163.02
636.8	1199.05
636.997	1271.71
637.195	1276.36
637.393	1235.87
637.591	1298.83
637.789	1232.96
637.986	1200.02
638.184	1223.85
638.382	1296.31
638.58	1249.43
638.777	1291.28
638.975	1237.42
639.173	1225.02
639.37	1231.99
639.568	1267.64
639.765	1248.46
639.963	1192.47
640.161	1300.58
640.358	1255.05
640.556	1215.91
640.753	1193.24
640.951	1182.2
641.148	1231.6
641.346	1217.85
641.543	1238.97
641.741	1226.76
641.938	1192.27
642.136	1234.12
642.333	1165.73
642.531	1237.8
642.728	1275.78
642.925	1233.93
643.123	1208.93
643.32	1234.9
643.517	1184.91
643.715	1224.05
643.912	1166.7
644.109	1231.99
644.306	1198.47
644.504	1190.33
644.701	1172.51
644.898	1229.28
645.095	1162.82
645.293	1172.51
645.49	1193.63
645.687	1204.09
645.884	1228.89
646.081	1095.2
646.278	1153.14
646.475	1139.77
646.672	1134.34
646.87	1162.24
647.067	1149.07
647.264	1147.32
647.461	1107.6
647.658	1082.8
647.855	1154.1
648.052	1127.95
648.249	1037.27
648.446	1067.31
648.642	1082.61
648.839	1057.81
649.036	1107.6
649.233	1045.22
649.43	1037.66
649.627	1045.02
649.824	1073.7
650.021	1094.82
650.217	1080.48
650.414	1097.72
650.611	1116.13
650.808	1120.2
651.004	1122.14
651.201	1114.58
651.398	1159.72
651.595	1122.33
651.791	1073.7
651.988	1129.5
652.185	1066.14
652.381	1127.75
652.578	1011.89
652.775	1069.05
652.971	1110.12
653.168	1074.09
653.364	1091.91
653.561	1027.39
653.757	1104.31
653.954	1106.44
654.15	1083.97
654.347	1155.27
654.543	1095.59
654.74	1017.51
654.936	1027.59
655.133	1024.29
655.329	1072.92
655.525	1022.94
655.722	1060.52
655.918	984.77
656.115	1040.18
656.311	921.03
656.507	913.28
656.704	873.95
656.9	932.46
657.096	935.56
657.292	930.52
657.489	1018.48
657.685	1014.41
657.881	982.83
658.077	967.53
658.273	1023.13
658.47	1067.5
658.666	1024.29
658.862	1030.69
659.058	1013.83
659.254	1054.52
659.45	984.96
659.646	1045.02
659.842	1032.24
660.038	1101.4
660.234	1040.96
660.43	1044.44
660.626	1104.31
660.822	1075.44
661.018	1064.4
661.214	1022.74
661.41	1054.52
661.606	1073.7
661.802	1072.54
661.998	1059.56
662.194	1038.82
662.39	1057.62
662.586	1091.33
662.781	1056.07
662.977	1086.29
663.173	1047.93
663.369	1042.89
663.564	1043.47
663.76	1059.75
663.956	1032.43
664.152	1090.17
664.347	975.47
664.543	1056.84
664.739	1037.86
664.934	982.06
665.13	1000.07
665.326	1045.99
665.521	1058.01
665.717	1023.32
665.912	1001.62
666.108	959.58
666.304	996.97
666.499	1010.92
666.695	932.07
666.89	1023.71
667.086	1044.44
667.281	1012.09
667.477	1098.5
667.672	1004.34
667.867	1001.04
668.063	1026.23
668.258	1002.4
668.454	1001.82
668.649	1075.44
668.844	1033.4
669.04	1038.82
669.235	999.3
669.43	991.74
669.626	965.98
669.821	961.71
670.016	931.1
670.211	1032.43
670.407	927.61
670.602	989.22
670.797	989.61
670.992	1004.72
671.187	959.39
671.382	1050.26
671.578	940.21
671.773	1003.95
671.968	960.36
672.163	964.62
672.358	1011.89
672.553	952.41
672.748	977.21
672.943	1026.81
673.138	935.75
673.333	997.94
673.528	931.29
673.723	990.97
673.918	951.64
674.113	922.96
674.308	1016.54
674.503	1004.92
674.698	978.76
674.892	1002.01
675.087	987.09
675.282	976.05
675.477	957.45
675.672	989.03
675.867	952.22
676.061	912.89
676.256	927.23
676.451	922.96
676.646	996.01
676.84	931.68
677.035	921.61
677.23	916.18
677.424	981.48
677.619	966.17
677.814	955.32
678.008	1004.53
678.203	904.94
678.397	929.36
678.592	957.84
678.787	994.84
678.981	934.2
679.176	978.18
679.37	938.08
679.565	937.3
679.759	934.59
679.954	938.46
680.148	991.36
680.342	991.16
680.537	971.21
680.731	928.97
680.926	966.17
681.12	971.59
681.314	935.56
681.509	923.35
681.703	920.06
681.897	948.15
682.092	924.9
682.286	917.73
682.48	1013.64
682.674	955.13
682.869	908.82
683.063	957.45
683.257	961.52
683.451	924.71
683.645	946.02
683.839	914.44
684.034	934.39
684.228	953.58
684.422	890.22
684.616	907.85
684.81	949.51
685.004	903.59
685.198	920.06
685.392	956.68
685.586	891.19
685.78	902.62
685.974	933.43
686.168	915.41
686.362	960.55
686.556	844.69
686.75	810.59
686.944	777.27
687.138	766.8
687.331	662.95
687.525	703.45
687.719	618.01
687.913	690.66
688.107	720.11
688.301	665.28
688.494	729.02
688.688	658.89
688.882	678.65
689.076	640.67
689.269	710.81
689.463	773.58
689.657	704.61
689.85	712.17
690.044	735.42
690.238	714.88
690.431	722.05
690.625	729.8
690.818	765.64
691.012	782.11
691.205	806.33
691.399	774.55
691.593	825.31
691.786	863.87
691.98	855.54
692.173	848.37
692.366	843.91
692.56	862.9
692.753	898.16
692.947	819.11
693.14	885.96
693.333	914.44
693.527	838.88
693.72	886.93
693.914	859.8
694.107	851.86
694.3	858.45
694.493	855.35
694.687	897.19
694.88	872.4
695.073	939.63
695.266	916.76
695.46	905.33
695.653	934.59
695.846	930.91
696.039	873.95
696.232	896.23
696.425	959.19
696.618	958.03
696.812	965.98
697.005	1036.31
697.198	1095.01
697.391	1026.23
697.584	1036.5
697.777	1115.94
697.97	1064.21
698.163	1070.6
698.356	1059.17
698.549	1151
698.742	1112.64
698.935	1044.25
699.127	1121.75
699.32	1073.89
699.513	1073.12
699.706	1105.47
699.899	1113.61
700.092	1095.2
700.285	1103.15
700.477	1085.71
700.67	1132.21
700.863	1140.74
701.056	1212.81
701.248	1177.55
701.441	1154.1
701.634	1140.54
701.826	1253.69
702.019	1163.98
702.212	1229.08
702.404	1172.12
702.597	1154.88
702.79	1213.58
702.982	1254.85
703.175	1260.66
703.367	1302.51
703.56	1272.87
703.752	1326.93
703.945	1295.35
704.137	1377.69
704.33	1349.59
704.522	1355.79
704.715	1351.53
704.907	1380.01
705.1	1468.56
705.292	1418.96
705.484	1396.09
705.677	1465.65
705.869	1473.4
706.061	1445.89
706.254	1521.45
706.446	1505.56
706.638	1454.02
706.831	1530.36
707.023	1517.77
707.215	1612.51
707.407	1591.78
707.599	1595.07
707.792	1653.2
707.984	1628.98
708.176	1627.62
708.368	1613.28
708.56	1659.01
708.752	1643.32
708.944	1648.55
709.136	1719.46
709.329	1693.3
709.521	1773.51
709.713	1776.81
709.905	1731.08
710.097	1794.63
710.289	1738.45
710.481	1751.81
710.672	1790.18
710.864	1783.98
711.056	1848.69
711.248	1849.27
711.44	1812.65
711.632	1871.74
711.824	1881.82
712.016	1940.91
712.207	1934.71
712.399	1955.64
712.591	1982.37
712.783	1982.95
712.975	1970.94
713.166	1942.46
713.358	1961.45
713.55	2066.07
713.741	2024.8
713.933	2058.71
714.125	2036.82
714.316	2013.57
714.508	2083.9
714.7	2104.24
714.891	2066.65
715.083	2124.39
715.274	2091.65
715.466	2160.43
715.657	2127.68
715.849	2084.48
716.04	2112.96
716.232	2085.83
716.423	2076.34
716.615	2000
716.806	1972.3
716.998	1949.63
717.189	1878.33
717.381	1806.45
717.572	1802.77
717.763	1810.52
717.955	1771.77
718.146	1727.4
718.337	1684.2
718.528	1683.23
718.72	1586.74
718.911	1661.53
719.102	1628.59
719.293	1684.58
719.485	1613.67
719.676	1644.09
719.867	1633.05
720.058	1619.87
720.249	1659.01
720.44	1667.34
720.632	1718.49
720.823	1766.73
721.014	1902.16
721.205	1910.3
721.396	1957.57
721.587	2093.97
721.778	2111.02
721.969	2175.73
722.16	2246.06
722.351	2269.7
722.542	2348.94
722.733	2366.96
722.924	2325.69
723.115	2299.15
723.305	2307.87
723.496	2320.07
723.687	2235.21
723.878	2220.29
724.069	2216.42
724.26	2204.02
724.45	2159.65
724.641	2146.86
724.832	2196.85
725.023	2152.87
725.213	2136.21
725.404	2171.47
725.595	2149.96
725.785	2124.58
725.976	2209.44
726.167	2209.06
726.357	2257.69
726.548	2346.42
726.739	2248.97
726.929	2332.28
727.12	2379.36
727.31	2309.61
727.501	2292.18
727.691	2334.02
727.882	2355.14
728.072	2391.18
728.263	2397.96
728.453	2470.81
728.644	2437.49
728.834	2450.66
729.024	2391.76
729.215	2387.5
729.405	2441.36
729.596	2500.65
729.786	2524.28
729.976	2552.77
730.167	2582.99
730.357	2546.76
730.547	2532.42
730.737	2600.62
730.928	2638.4
731.118	2678.12
731.308	2593.06
731.498	2664.17
731.688	2727.72
731.879	2704.66
732.069	2810.64
732.259	2846.29
732.449	2874.39
732.639	2941.62
732.829	2982.3
733.019	3037.91
733.209	3037.91
733.399	3112.31
733.589	3124.32
733.779	3160.36
733.969	3208.41
734.159	3286.87
734.349	3318.26
734.539	3393.63
734.729	3350.81
734.919	3372.51
735.109	3461.25
735.299	3359.14
735.488	3419.01
735.678	3440.71
735.868	3392.47
736.058	3385.88
736.248	3375.03
736.437	3390.92
736.627	3359.14
736.817	3521.89
737.007	3461.83
737.196	3492.44
737.386	3537.19
737.576	3494.96
737.765	3555.99
737.955	3553.28
738.144	3633.87
738.334	3608.88
738.524	3539.91
738.713	3573.04
738.903	3614.89
739.092	3624.96
739.282	3600.36
739.471	3670.49
739.661	3636.59
739.85	3718.74
740.04	3697.04
740.229	3748.77
740.419	3762.72
740.608	3795.46
740.797	3752.45
740.987	3831.88
741.176	3821.03
741.365	3779.19
741.555	3725.13
741.744	3873.54
741.933	3777.25
742.123	3820.45
742.312	3878.19
742.501	3892.53
742.69	3916.16
742.88	3814.45
743.069	3979.71
743.258	3882.45
743.447	3934.76
743.636	3936.31
743.825	3874.51
744.014	3933.99
744.204	3975.45
744.393	3942.9
744.582	4037.84
744.771	4022.92
744.96	3963.44
745.149	4027.38
745.338	3988.04
745.527	4034.93
745.716	3962.28
745.905	3971.58
746.094	4057.79
746.283	4050.82
746.471	4052.37
746.66	4092.86
746.849	4076.78
747.038	4095.96
747.227	4032.61
747.416	4069.03
747.604	4032.8
747.793	4039.97
747.982	4050.62
748.171	4096.16
748.359	4024.47
748.548	4074.26
748.737	4036.09
748.926	4039
749.114	3981.84
749.303	4066.32
749.491	4039.97
749.68	3993.66
749.869	4082.59
750.057	4033.58
750.246	3988.04
750.434	4002.19
750.623	4061.47
750.811	3935.15
751	4058.57
751.188	4008.39
751.377	3977.39
751.565	3972.93
751.754	3967.12
751.942	3983.78
752.131	4028.93
752.319	3957.24
752.507	3909.77
752.696	4005.48
752.884	3996.18
753.072	3988.63
753.261	3950.65
753.449	3987.27
753.637	3938.25
753.825	4061.86
754.014	3970.22
754.202	3995.21
754.39	4040.16
754.578	4011.1
754.766	3937.28
754.955	3938.25
755.143	4012.65
755.331	3917.91
755.519	3937.28
755.707	3953.17
755.895	3899.89
756.083	3951.81
756.271	3881.29
756.459	3938.64
756.647	3917.91
756.835	3856.49
757.023	3882.06
757.211	3889.43
757.399	3886.71
757.587	3818.71
757.775	3810.18
757.963	3872.96
758.151	3804.76
758.339	3771.82
758.526	3772.21
758.714	3816.19
758.902	3660.81
759.09	3537.78
759.278	3310.7
759.465	3056.12
759.653	2645.57
759.841	2397.19
760.028	2067.43
760.216	1800.06
760.404	1642.35
760.591	1379.43
760.779	1163.4
760.967	1014.02
761.154	827.25
761.342	869.3
761.529	862.9
761.717	918.89
761.905	901.84
762.092	987.48
762.28	896.23
762.467	875.69
762.655	837.33
762.842	904.17
763.029	858.45
763.217	881.11
763.404	889.83
763.592	892.55
763.779	877.43
763.966	920.83
764.154	968.11
764.341	1012.09
764.528	1041.15
764.716	1122.72
764.903	1173.67
765.09	1234.32
765.277	1281.4
765.465	1449.57
765.652	1527.45
765.839	1648.16
766.026	1786.3
766.213	1813.62
766.4	1978.69
766.588	2124
766.775	2204.99
766.962	2323.17
767.149	2390.99
767.336	2532.23
767.523	2541.14
767.71	2683.74
767.897	2824.59
768.084	2882.52
768.271	2922.05
768.458	2981.92
768.645	3034.23
768.832	3066.97
769.019	3132.84
769.206	3139.63
769.392	3265.56
769.579	3312.25
769.766	3265.17
769.953	3276.41
770.14	3358.75
770.327	3351.2
770.513	3392.85
770.7	3438
770.887	3360.69
771.073	3426.18
771.26	3386.65
771.447	3378.32
771.634	3344.61
771.82	3464.35
772.007	3401.96
772.193	3410.68
772.38	3403.7
772.567	3404.48
772.753	3437.61
772.94	3456.01
773.126	3474.81
773.313	3467.64
773.499	3465.12
773.686	3455.24
773.872	3370.38
774.059	3410.29
774.245	3393.24
774.432	3363.02
774.618	3315.55
774.804	3384.91
774.991	3333.76
775.177	3390.92
775.363	3377.93
775.55	3383.36
775.736	3286.87
775.922	3338.02
776.109	3348.68
776.295	3376.77
776.481	3410.48
776.667	3400.02
776.853	3341.9
777.04	3335.5
777.226	3341.9
777.412	3445.75
777.598	3259.75
777.784	3327.56
777.97	3265.75
778.156	3257.42
778.342	3337.44
778.528	3258.39
778.715	3231.07
778.901	3212.86
779.087	3245.41
779.272	3215.96
779.458	3235.53
779.644	3273.89
779.83	3190
780.016	3287.84
780.202	3245.41
780.388	3208.02
780.574	3134.78
780.76	3168.69
780.946	3201.82
781.131	3215.57
781.317	3138.66
781.503	3147.18
781.689	3126.45
781.874	3274.67
782.06	3143.11
782.246	3173.53
782.432	3131.88
782.617	3155.71
782.803	3174.31
782.989	3103.59
783.174	3087.7
783.36	3046.43
783.545	3086.15
783.731	3102.81
783.916	2991.02
784.102	3118.12
784.288	3030.35
784.473	3074.14
784.659	3012.33
784.844	3054.57
785.029	3029.77
785.215	3024.54
785.4	2979.2
785.586	3081.69
785.771	2988.7
785.956	3025.51
786.142	3004.78
786.327	2979.98
786.512	2948.2
786.698	2960.22
786.883	2922.82
787.068	2950.33
787.254	2922.63
787.439	2885.62
787.624	2881.75
787.809	2924.76
787.994	2890.27
788.18	2953.24
788.365	2816.65
788.55	2847.84
788.735	2814.32
788.92	2831.57
789.105	2811.42
789.29	2872.64
789.475	2737.02
789.66	2800.76
789.845	2768.79
790.03	2756.78
790.215	2804.06
790.4	2802.12
790.585	2767.63
790.77	2761.62
790.955	2709.51
791.14	2757.56
791.325	2794.56
791.51	2682.96
791.695	2734.5
791.879	2724.23
792.064	2662.81
792.249	2805.22
792.434	2702.34
792.618	2735.86
792.803	2738.18
792.988	2709.12
793.173	2748.06
793.357	2777.71
793.542	2709.7
793.727	2746.32
793.911	2757.36
794.096	2733.72
794.281	2773.83
794.465	2817.81
794.65	2742.64
794.834	2822.27
795.019	2847.65
795.203	2831.76
795.388	2821.69
795.572	2828.08
795.757	2812.58
795.941	2794.76
796.126	2748.84
796.31	2730.04
796.494	2742.06
796.679	2759.88
796.863	2714.35
797.048	2782.36
797.232	2762.21
797.416	2775.96
797.601	2797.08
797.785	2840.09
797.969	2848.23
798.153	2783.32
798.338	2826.72
798.522	2865.09
798.706	2826.34
798.89	2846.87
799.074	2889.5
799.258	2852.69
799.443	2851.33
799.627	2782.36
799.811	2857.53
799.995	2818.78
800.179	2781.19
800.363	2795.34
800.547	2816.26
800.731	2809.87
800.915	2734.69
801.099	2753.87
801.283	2787.59
801.467	2755.42
801.651	2780.61
801.835	2832.54
802.019	2781.19
802.202	2806.38
802.386	2738.96
802.57	2731.59
802.754	2737.21
802.938	2719.39
803.121	2750
803.305	2781.77
803.489	2797.86
803.673	2788.94
803.856	2773.06
804.04	2775.96
804.224	2766.27
804.407	2783.13
804.591	2743.99
804.775	2729.85
804.958	2737.79
805.142	2831.37
805.326	2771.89
805.509	2779.64
805.693	2839.12
805.876	2833.31
806.06	2817.23
806.243	2812.19
806.427	2833.12
806.61	2851.91
806.794	2768.02
806.977	2828.85
807.16	2813.74
807.344	2846.87
807.527	2799.02
807.71	2771.89
807.894	2794.37
808.077	2823.04
808.26	2762.98
808.444	2749.22
808.627	2812.58
808.81	2740.7
808.993	2670.56
809.177	2686.64
809.36	2695.56
809.543	2677.15
809.726	2629.49
809.909	2633.95
810.092	2604.69
810.276	2601.78
810.459	2594.81
810.642	2585.12
810.825	2520.22
811.008	2562.06
811.191	2460.74
811.374	2527
811.557	2471.39
811.74	2565.94
811.923	2425.86
812.106	2421.79
812.289	2385.37
812.472	2372
812.654	2422.57
812.837	2372
813.02	2330.73
813.203	2250.13
813.386	2136.79
813.569	2152.87
813.751	2083.32
813.934	2107.15
814.117	2071.88
814.3	2039.14
814.482	1988.57
814.665	1973.27
814.848	1933.36
815.03	1868.26
815.213	1884.72
815.396	1860.89
815.578	1821.95
815.761	1772.54
815.943	1850.63
816.126	1752.2
816.309	1713.84
816.491	1694.08
816.674	1620.45
816.856	1679.93
817.039	1667.92
817.221	1722.75
817.403	1682.84
817.586	1689.81
817.768	1696.21
817.951	1621.81
818.133	1608.05
818.315	1669.28
818.498	1714.61
818.68	1732.63
818.862	1713.84
819.045	1744.26
819.227	1727.98
819.409	1676.25
819.591	1751.23
819.774	1707.83
819.956	1698.53
820.138	1804.51
820.32	1760.53
820.502	1826.99
820.684	1913.79
820.866	1913.59
821.048	1939.56
821.231	1932
821.413	1984.12
821.595	1943.82
821.777	1963.97
821.959	1938.01
822.141	1980.82
822.323	1862.06
822.505	1782.23
822.686	1747.36
822.868	1632.47
823.05	1552.45
823.232	1498.39
823.414	1479.79
823.596	1527.07
823.778	1537.53
823.96	1539.66
824.141	1548.57
824.323	1600.3
824.505	1683.03
824.687	1707.64
824.868	1756.08
825.05	1822.53
825.232	1874.26
825.413	1964.16
825.595	1902.94
825.777	1859.73
825.958	1894.41
826.14	1860.89
826.321	1944.79
826.503	1918.05
826.685	1926.77
826.866	1922.51
827.048	1914.56
827.229	1857.02
827.411	1839
827.592	1774.87
827.773	1746
827.955	1698.53
828.136	1748.52
828.318	1674.32
828.499	1712.29
828.68	1679.55
828.862	1720.04
829.043	1719.65
829.224	1676.64
829.406	1685.55
829.587	1660.95
829.768	1678.77
829.949	1728.18
830.131	1709
830.312	1753.95
830.493	1695.24
830.674	1709.96
830.855	1727.21
831.036	1706.48
831.218	1724.69
831.399	1743.1
831.58	1759.76
831.761	1682.26
831.942	1732.63
832.123	1704.15
832.304	1672.77
832.485	1719.85
832.666	1681.29
832.847	1732.05
833.028	1708.8
833.209	1714.03
833.389	1697.56
833.57	1667.15
833.751	1643.9
833.932	1672.38
834.113	1697.18
834.294	1707.25
834.475	1726.24
834.655	1792.31
834.836	1774.29
835.017	1763.05
835.198	1709.58
835.378	1745.23
835.559	1799.28
835.74	1759.76
835.92	1708.03
836.101	1719.07
836.281	1798.89
836.462	1773.13
836.643	1802.19
836.823	1801.8
837.004	1799.67
837.184	1832.99
837.365	1791.73
837.545	1811.68
837.726	1782.04
837.906	1843.26
838.087	1838.03
838.267	1812.46
838.448	1750.26
838.628	1800.44
838.808	1776.23
838.989	1803.35
839.169	1744.65
839.349	1807.61
839.53	1821.76
839.71	1856.24
839.89	1825.44
840.07	1833.19
840.251	1778.55
840.431	1826.99
840.611	1810.13
840.791	1757.05
840.971	1817.49
841.151	1763.63
841.332	1728.95
841.512	1803.35
841.692	1699.31
841.872	1813.04
842.052	1786.69
842.232	1782.23
842.412	1726.24
842.592	1749.49
842.772	1804.32
842.952	1790.56
843.132	1748.71
843.312	1760.34
843.492	1710.93
843.672	1792.5
843.851	1702.6
844.031	1728.76
844.211	1739.22
844.391	1724.69
844.571	1759.76
844.751	1768.67
844.93	1716.75
845.11	1715
845.29	1699.31
845.47	1773.71
845.649	1721.2
845.829	1756.08
846.009	1713.06
846.188	1739.03
846.368	1714.61
846.547	1737.86
846.727	1755.69
846.907	1697.56
847.086	1730.11
847.266	1786.11
847.445	1732.25
847.625	1708.41
847.804	1675.87
847.984	1735.93
848.163	1660.17
848.343	1676.25
848.522	1701.05
848.701	1684.78
848.881	1655.13
849.06	1672.96
849.239	1673.15
849.419	1679.74
849.598	1594.49
849.777	1637.31
849.957	1591.2
850.136	1535.2
850.315	1538.3
850.494	1553.8
850.674	1529
850.853	1618.13
851.032	1585.97
851.211	1632.27
851.39	1596.62
851.569	1517.77
851.748	1534.62
851.927	1594.3
852.107	1539.66
852.286	1572.02
852.465	1544.89
852.644	1580.74
852.823	1583.45
853.002	1564.85
853.181	1580.15
853.359	1543.15
853.538	1516.41
853.717	1588.49
853.896	1457.9
854.075	1426.71
854.254	1375.75
854.433	1323.44
854.611	1379.04
854.79	1287.98
854.969	1345.33
855.148	1386.6
855.327	1350.95
855.505	1418.18
855.684	1398.42
855.863	1431.36
856.041	1402.49
856.22	1481.54
856.399	1422.25
856.577	1523.58
856.756	1466.42
856.934	1603.98
857.113	1565.62
857.291	1529.39
857.47	1479.02
857.648	1497.04
857.827	1508.08
858.005	1545.09
858.184	1511.57
858.362	1560.78
858.541	1506.14
858.719	1509.05
858.898	1483.47
859.076	1509.82
859.254	1533.07
859.433	1490.64
859.611	1479.99
859.789	1426.51
859.967	1519.12
860.146	1507.11
860.324	1440.07
860.502	1416.83
860.68	1409.27
860.859	1436.01
861.037	1428.45
861.215	1459.45
861.393	1430
861.571	1402.29
861.749	1426.71
861.927	1443.95
862.105	1425.74
862.283	1422.06
862.461	1379.63
862.639	1376.91
862.817	1423.41
862.995	1407.91
863.173	1399.19
863.351	1414.5
863.529	1426.32
863.707	1452.67
863.885	1427.67
864.063	1346.49
864.241	1370.52
864.418	1454.22
864.596	1369.16
864.774	1334.29
864.952	1378.66
865.129	1389.31
865.307	1388.93
865.485	1307.94
865.663	1377.69
865.84	1258.53
866.018	1310.26
866.196	1188.78
866.373	1191.88
866.551	1182.97
866.728	1129.3
866.906	1200.8
867.084	1208.74
867.261	1230.25
867.439	1225.02
867.616	1292.63
867.794	1281.01
867.971	1260.86
868.149	1256.6
868.326	1329.25
868.503	1318.79
868.681	1299.41
868.858	1272.87
869.035	1255.05
869.213	1300.77
869.39	1259.11
869.567	1341.07
869.745	1246.33
869.922	1293.02
870.099	1312.98
870.276	1292.63
870.454	1309.1
870.631	1292.44
870.808	1267.45
870.985	1304.06
871.162	1364.13
871.339	1263.38
871.517	1224.24
871.694	1240.71
871.871	1230.83
872.048	1222.11
872.225	1263.76
872.402	1260.66
872.579	1219.98
872.756	1282.36
872.933	1183.94
873.11	1205.64
873.287	1273.84
873.463	1214.36
873.64	1208.74
873.817	1218.82
873.994	1197.12
874.171	1179.29
874.348	1205.25
874.524	1160.88
874.701	1215.52
874.878	1159.72
875.055	1243.42
875.231	1199.05
875.408	1209.32
875.585	1126.98
875.762	1194.21
875.938	1173.09
876.115	1153.33
876.291	1167.08
876.468	1175.8
876.645	1123.69
876.821	1132.99
876.998	1154.3
877.174	1165.92
877.351	1144.42
877.527	1102.76
877.704	1150.42
877.88	1175.03
878.057	1127.17
878.233	1159.72
878.409	1124.27
878.586	1140.54
878.762	1095.59
878.938	1108.19
879.115	1077.77
879.291	1139.96
879.467	1049.48
879.644	1081.25
879.82	1097.14
879.996	1067.11
880.172	1024.87
880.349	1046.19
880.525	1121.94
880.701	1058.2
880.877	1020.81
881.053	1088.81
881.229	1038.24
881.405	1122.52
881.581	1029.52
881.757	1065.95
881.933	1107.02
882.109	1106.25
882.285	1035.72
882.461	1054.52
882.637	1083.58
882.813	1033.59
882.989	1079.12
883.165	1103.73
883.341	1036.31
883.517	1090.75
883.693	1069.63
883.869	1123.1
884.044	1047.54
884.22	1082.42
884.396	1119.62
884.572	1098.5
884.747	1108.77
884.923	1095.98
885.099	1087.45
885.275	1101.02
885.45	1042.31
885.626	1067.31
885.801	1051.22
885.977	1031.85
886.153	1021.77
886.328	1076.22
886.504	1032.82
886.679	1057.62
886.855	1023.13
887.03	1049.29
887.206	1082.61
887.381	1046.19
887.557	1050.06
887.732	1074.47
887.908	1079.7
888.083	1043.47
888.258	1049.29
888.434	1048.32
888.609	1057.42
888.784	1071.76
888.96	1037.47
889.135	1040.37
889.31	992.91
889.485	1084.55
889.661	1063.04
889.836	1087.26
890.011	1070.02
890.186	1073.5
890.361	1068.47
890.537	1056.46
890.712	1072.15
890.887	1065.76
891.062	1027.39
891.237	1128.92
891.412	1043.47
891.587	1062.46
891.762	1081.25
891.937	1086.87
892.112	1018.29
892.287	1048.12
892.462	989.22
892.637	981.86
892.812	984.57
892.987	976.44
893.161	944.08
893.336	975.47
893.511	977.41
893.686	954.16
893.861	928.97
894.035	991.55
894.21	928.58
894.385	910.95
894.56	909.21
894.734	885.76
894.909	894.68
895.084	867.36
895.258	858.83
895.433	879.37
895.608	828.8
895.782	798.58
895.957	786.57
896.131	829.77
896.306	728.44
896.48	748.2
896.655	743.94
896.829	677.68
897.004	699.96
897.178	712.36
897.353	681.36
897.527	717.2
897.701	720.3
897.876	642.22
898.05	742.78
898.224	732.9
898.399	715.46
898.573	701.51
898.747	593.59
898.921	639.7
899.096	544.19
899.27	584.1
899.444	575.19
899.618	586.81
899.792	634.47
899.967	613.16
900.141	664.12
900.315	593.21
900.489	581
900.663	608.71
900.837	600.76
901.011	568.6
901.185	649.59
901.359	628.66
901.533	619.36
901.707	612.19
901.881	616.07
902.055	567.82
902.229	563.37
902.403	646.49
902.576	607.74
902.75	634.86
902.924	715.27
903.098	678.65
903.272	714.3
903.446	721.08
903.619	737.74
903.793	763.32
903.967	725.15
904.14	781.33
904.314	766.03
904.488	761.38
904.661	796.45
904.835	740.45
905.009	812.72
905.182	852.83
905.356	759.44
905.529	765.45
905.703	757.7
905.876	731.15
906.05	707.13
906.223	688.34
906.397	637.38
906.57	628.27
906.744	586.42
906.917	596.69
907.09	621.11
907.264	581.58
907.437	563.56
907.61	538.76
907.784	570.92
907.957	589.14
908.13	545.16
908.304	593.4
908.477	540.89
908.65	573.06
908.823	516.68
908.996	581.77
909.17	514.16
909.343	540.51
909.516	518.23
909.689	518.03
909.862	523.65
910.035	535.86
910.208	496.33
910.381	493.43
910.554	597.08
910.727	516.09
910.9	499.63
911.073	520.94
911.246	577.9
911.419	567.44
911.592	520.94
911.765	525.01
911.938	517.45
912.11	524.62
912.283	534.89
912.456	556.01
912.629	549.81
912.802	491.49
912.974	457.58
913.147	453.13
913.32	389
913.493	430.46
913.665	426.39
913.838	452.74
914.01	442.08
914.183	445.96
914.356	478.51
914.528	491.68
914.701	538.57
914.873	488.39
915.046	436.46
915.218	445.18
915.391	372.33
915.563	384.93
915.736	435.88
915.908	464.75
916.081	447.7
916.253	472.89
916.425	456.81
916.598	459.91
916.77	470.37
916.942	425.61
917.115	339.59
917.287	441.7
917.459	412.25
917.632	374.85
917.804	358
917.976	412.83
918.148	440.34
918.32	426.58
918.493	454.87
918.665	482.58
918.837	463.2
919.009	500.21
919.181	519.39
919.353	488.58
919.525	454.87
919.697	481.03
919.869	459.52
920.041	546.9
920.213	596.5
920.385	509.7
920.557	491.88
920.729	521.71
920.901	513.96
921.073	481.61
921.244	463.2
921.416	501.37
921.588	487.42
921.76	455.45
921.932	518.42
922.103	492.84
922.275	479.48
922.447	517.26
922.619	388.8
922.79	489.74
922.962	457.97
923.134	508.93
923.305	413.41
923.477	414.96
923.648	440.92
923.82	430.26
923.991	370.78
924.163	387.64
924.335	429.68
924.506	390.93
924.677	437.05
924.849	408.56
925.02	414.96
925.192	445.76
925.363	411.86
925.535	440.92
925.706	394.42
925.877	459.91
926.049	407.6
926.22	413.8
926.391	443.05
926.562	449.25
926.734	377.76
926.905	426.58
927.076	374.66
927.247	394.03
927.419	353.93
927.59	317.12
927.761	345.98
927.932	330.29
928.103	351.6
928.274	269.26
928.445	257.44
928.616	295.03
928.787	285.53
928.958	331.07
929.129	291.93
929.3	290.96
929.471	224.89
929.642	214.24
929.813	181.69
929.984	251.05
930.155	172.97
930.326	222.57
930.496	192.15
930.667	134.99
930.838	188.86
931.009	123.17
931.18	160.18
931.35	156.31
931.521	144.49
931.692	91.01
931.863	67.38
932.033	108.06
932.204	147.59
932.374	126.66
932.545	84.81
932.716	130.15
932.886	133.64
933.057	35.99
933.227	70.86
933.398	118.72
933.568	83.26
933.739	4.8
933.909	35.41
934.08	81.13
934.25	-10.12
934.421	34.44
934.591	61.56
934.761	31.73
934.932	1.89
935.102	30.18
935.272	14.68
935.443	48.58
935.613	33.86
935.783	56.53
935.953	9.64
936.123	181.69
936.294	11.19
936.464	30.95
936.634	23.98
936.804	0.34
936.974	0.34
937.144	54.78
937.314	42.19
937.484	16.42
937.655	-15.55
937.825	72.61
937.995	21.46
938.165	54.39
938.334	38.89
938.504	65.05
938.674	42.19
938.844	79.39
939.014	104.58
939.184	81.52
939.354	145.46
939.524	153.79
939.694	101.28
939.863	67.96
940.033	125.11
940.203	121.62
940.373	106.51
940.542	113.1
940.712	74.74
940.882	116.39
941.051	118.14
941.221	96.63
941.391	142.36
941.56	60.98
941.73	64.66
941.899	178.78
942.069	79.78
942.238	95.47
942.408	80.74
942.577	122.98
942.747	77.06
942.916	37.73
943.086	41.22
943.255	99.54
943.425	82.49
943.594	69.31
943.763	19.33
943.933	20.68
944.102	6.35
944.271	59.63
944.441	56.91
944.61	56.72
944.779	72.41
944.948	153.98
945.117	32.5
945.287	60.21
945.456	25.72
945.625	23.98
945.794	81.52
945.963	48.97
946.132	74.74
946.301	33.86
946.47	105.16
946.639	20.49
946.808	56.14
946.977	63.89
947.146	105.16
947.315	19.91
947.484	82.1
947.653	75.32
947.822	39.28
947.991	52.65
948.16	110.97
948.329	105.74
948.498	54.98
948.666	61.37
948.835	92.37
949.004	39.67
949.173	14.29
949.341	47.23
949.51	70.09
949.679	104.58
949.847	106.13
950.016	123.17
950.185	127.05
950.353	30.95
950.522	76.09
950.69	99.73
950.859	45.87
951.028	111.74
951.196	67.38
951.365	47.23
951.533	64.28
951.701	96.05
951.87	80.94
952.038	42.77
952.207	46.84
952.375	127.05
952.543	55.94
952.712	79.97
952.88	47.03
953.048	128.02
953.217	107.48
953.385	71.25
953.553	103.8
953.721	33.28
953.89	73.58
954.058	42.96
954.226	17.97
954.394	61.37
954.562	32.31
954.73	54.2
954.898	48.97
955.067	90.82
955.235	50.13
955.403	88.69
955.571	152.24
955.739	79.58
955.907	21.26
956.075	40.64
956.243	39.86
956.41	75.71
956.578	24.94
956.746	44.13
956.914	49.94
957.082	86.94
957.25	60.21
957.418	58.66
957.585	97.21
957.753	97.99
957.921	56.33
958.089	57.88
958.256	79.19
958.424	98.96
958.592	64.28
958.759	39.48
958.927	92.37
959.095	22.23
959.262	50.52
959.43	56.14
959.597	64.66
959.765	48.39
959.932	18.75
960.1	96.63
960.267	76.09
960.435	63.5
960.602	110.19
960.77	70.48
960.937	52.84
961.104	93.92
961.272	26.49
961.439	40.83
961.606	115.81
961.774	88.88
961.941	71.44
962.108	105.74
962.275	102.06
962.443	115.62
962.61	89.08
962.777	132.28
962.944	106.32
963.111	88.49
963.278	97.41
963.446	83.07
963.613	70.67
963.78	86.17
963.947	105.54
964.114	99.34
964.281	144.87
964.448	105.93
964.615	64.86
964.782	75.51
964.949	105.93
965.116	105.74
965.282	142.36
965.449	73.96
965.616	82.49
965.783	103.03
965.95	77.84
966.117	61.18
966.283	82.88
966.45	76.29
966.617	106.9
966.784	134.22
966.95	141.77
967.117	122.79
967.284	78.23
967.45	95.28
967.617	132.09
967.784	132.86
967.95	177.23
968.117	88.3
968.283	121.62
968.45	208.04
968.616	127.82
968.783	125.69
968.949	134.22
969.116	167.54
969.282	110.39
969.449	116.01
969.615	98.38
969.781	77.06
969.948	98.38
970.114	62.73
970.28	156.89
970.447	100.12
970.613	187.11
970.779	116.2
970.945	160.57
971.112	134.8
971.278	102.64
971.444	106.51
971.61	143.91
971.776	104.58
971.942	131.7
972.108	122.98
972.275	118.91
972.441	124.92
972.607	162.89
972.773	76.09
972.939	122.59
973.105	130.54
973.271	68.73
973.437	91.4
973.602	85.78
973.768	108.84
973.934	95.66
974.1	121.43
974.266	36.38
974.432	82.1
974.598	70.86
974.763	101.09
974.929	94.5
975.095	150.11
975.261	48.19
975.426	63.5
975.592	111.16
975.758	147.59
975.923	29.4
976.089	56.33
976.255	116.2
976.42	126.08
976.586	120.07
976.751	121.82
976.917	158.44
977.082	135.38
977.248	37.73
977.413	44.71
977.579	81.71
977.744	94.89
977.91	58.85
978.075	82.1
978.24	111.36
978.406	98.76
978.571	86.36
978.736	76.48
978.902	147.78
979.067	88.3
979.232	30.37
979.397	84.23
979.563	138.67
979.728	48.19
979.893	82.1
980.058	91.59
980.223	89.66
980.388	94.31
980.554	96.24
980.719	85.01
980.884	87.14
981.049	131.89
981.214	93.53
981.379	86.17
981.544	97.41
981.709	82.1
981.874	103.61
982.039	115.04
982.204	108.06
982.368	97.6
982.533	72.61
982.698	108.45
982.863	114.65
983.028	82.1
983.193	100.31
983.357	127.05
983.522	85.39
983.687	78.03
983.852	100.7
984.016	66.41
984.181	111.16
984.346	81.33
984.51	139.26
984.675	83.65
984.839	140.22
985.004	114.46
985.168	132.47
985.333	121.43
985.498	94.11
985.662	145.46
985.827	88.3
985.991	90.43
986.155	97.79
986.32	134.8
986.484	149.52
986.649	124.53
986.813	62.34
986.977	116.59
987.142	104.38
987.306	75.71
987.47	67.76
987.634	98.38
987.799	71.44
987.963	115.42
988.127	100.31
988.291	151.07
988.455	108.06
988.62	72.8
988.784	101.86
988.948	119.49
989.112	47.81
989.276	85.78
989.44	97.41
989.604	57.11
989.768	76.29
989.932	160.76
990.096	41.22
990.26	48
990.424	51.1
990.588	97.21
990.752	130.54
990.915	138.09
991.079	76.68
991.243	85.39
991.407	108.45
991.571	76.68
991.734	94.5
991.898	101.28
992.062	176.65
992.226	88.3
992.389	80.94
992.553	58.27
992.717	45.87
992.88	72.99
993.044	99.93
993.207	76.29
993.371	117.56
993.535	76.48
993.698	94.5
993.862	108.06
994.025	103.8
994.189	100.12
994.352	96.44
994.515	77.26
994.679	96.83
994.842	60.98
995.006	98.18
995.169	66.21
995.332	52.07
995.496	107.48
995.659	34.44
995.822	73.58
995.985	63.69
996.149	117.56
996.312	57.11
996.475	153.98
996.638	48.58
996.801	100.89
996.964	132.47
997.128	75.32
997.291	70.09
997.454	91.98
997.617	37.34
997.78	100.51
997.943	45.68
998.106	111.74
998.269	53.62
998.432	74.93
998.595	73.19
998.758	25.91
998.92	48.78
999.083	29.4
999.246	51.1
999.409	58.66
999.572	39.48
999.735	51.68
999.897	86.17
1000.06	37.54
1000.223	56.91
1000.386	91.79
1000.548	96.63
1000.711	63.5
1000.874	94.31
1001.036	6.35
1001.199	84.81
1001.361	37.34
1001.524	50.52
1001.687	103.41
1001.849	53.43
1002.012	60.21
1002.174	62.14
1002.337	81.52
1002.499	86.94
1002.661	102.64
1002.824	25.14
1002.986	29.21
1003.149	60.79
1003.311	31.14
1003.473	90.63
1003.636	39.48
1003.798	66.41
1003.96	41.22
1004.123	54.39
1004.285	25.53
1004.447	43.16
1004.609	64.66
1004.771	66.6
1004.933	2.66
1005.096	51.1
1005.258	-3.15
1005.42	45.87
1005.582	110.39
1005.744	60.59
1005.906	7.51
1006.068	65.05
1006.23	17.97
1006.392	10.22
1006.554	-9.35
1006.716	70.48
1006.878	64.86
1007.04	10.22
1007.202	42.58
1007.363	68.93
1007.525	69.89
1007.687	92.76
1007.849	77.26
1008.011	11.58
1008.172	45.48
1008.334	55.36
1008.496	83.84
1008.658	-4.7
1008.819	12.35
1008.981	16.81
1009.143	-19.42
1009.304	44.71
1009.466	73.58
1009.627	73.58
1009.789	130.15
1009.95	59.24
1010.112	18.16
1010.273	52.84
1010.435	21.26
1010.596	38.12
1010.758	18.94
1010.919	56.72
1011.081	6.93
1011.242	54.39
1011.403	39.67
1011.565	43.54
1011.726	58.85
1011.887	-1.4
1012.049	24.94
1012.21	46.64
1012.371	107.29
1012.532	-16.71
1012.693	35.21
1012.855	11.38
1013.016	47.03
1013.177	42.96
1013.338	36.57
1013.499	85.98
1013.66	52.65
1013.821	65.24
1013.982	52.26
1014.143	21.46
1014.304	4.02
1014.465	41.99
1014.626	60.59
1014.787	35.41
1014.948	124.72
1015.109	-61.08
1015.27	70.67
1015.431	2.28
1015.592	22.04
1015.752	81.13
1015.913	65.63
1016.074	30.37
1016.235	24.17
1016.395	29.21
1016.556	15.26
1016.717	34.83
1016.877	83.26
1017.038	2.86
1017.199	60.4
1017.359	25.14
1017.52	38.7
1017.681	22.62
1017.841	6.15
1018.002	28.82
1018.162	18.16
1018.323	69.7
1018.483	13.71
1018.644	9.25
1018.804	-6.64
1018.964	-17.87
1019.125	21.84
1019.285	30.56
1019.446	7.9
1019.606	-5.67
1019.766	-21.36
1019.926	59.63
1020.087	46.84
1020.247	-12.25
1020.407	37.73
1020.567	53.04
1020.728	23.2
1020.888	-20.59
1021.048	17.58
1021.208	-9.93
1021.368	27.46
1021.528	82.68
1021.688	77.26
1021.848	44.13
1022.008	23.98
1022.168	30.56
1022.328	19.33
1022.488	55.94
1022.648	31.14
1022.808	12.35
1022.968	27.27
1023.128	-23.3
1023.288	14.68
1023.448	21.85
1023.608	51.68
1023.767	47.03
1023.927	23.78
1024.087	-28.34
1024.247	-16.13
1024.406	-1.02
1024.566	3.63
1024.726	-6.05
1024.885	16.23
1025.045	50.71
1025.205	10.41
1025.364	-15.16
1025.524	29.59
1025.683	8.28
1025.843	39.09
1026.003	3.63
1026.162	65.63
1026.321	41.41
1026.481	36.38
1026.64	14.1
1026.8	27.46
1026.959	12.35
1027.119	21.46
1027.278	21.07
1027.437	22.43
1027.597	0.53
1027.756	15.06
1027.915	15.06
1028.074	24.94
1028.234	-4.7
1028.393	37.73
1028.552	5.18
1028.711	-54.88
1028.87	41.03
1029.03	-2.57
1029.189	16.03
1029.348	-59.72
1029.507	-14.39
1029.666	-0.82
1029.825	-28.72
1029.984	8.28
1030.143	11.19
1030.302	-3.92
1030.461	-19.42
1030.62	10.8
1030.779	36.96
1030.938	-3.92
1031.097	-17.1
1031.255	33.47
1031.414	53.81
1031.573	46.84
1031.732	-43.45
1031.891	-5.67
1032.049	57.69
1032.208	24.94
1032.367	-34.34
1032.525	20.88
1032.684	3.05
1032.843	-3.92
1033.001	-52.94
1033.16	122.98
1033.319	36.38
1033.477	14.1
1033.636	9.25
1033.794	-34.54
1033.953	43.16
1034.111	15.45
1034.27	2.86
1034.428	32.5
1034.587	-38.8
1034.745	8.09
1034.903	-10.9
1035.062	29.01
1035.22	-37.83
1035.378	48.97
1035.537	-27.56
1035.695	38.51
1035.853	2.28
1036.011	39.48
1036.17	3.25
1036.328	-36.67
1036.486	27.27
1036.644	15.26
1036.802	-44.61
1036.96	-24.85
1037.119	-6.83
1037.277	-28.72
1037.435	-28.34
1037.593	-8.57
1037.751	-3.34
1037.909	24.56
1038.067	24.56
