Data from oakcork_FLMT105791__244__17-33-15-055.txt Node

Date: Mon Mar 20 17:33:15 GMT 2023
User: antho
Spectrometer: FLMT10579
Trigger mode: 0
Integration Time (sec): 1.000000E-1
Scans to average: 10
Electric dark correction enabled: true
Nonlinearity correction enabled: false
Boxcar width: 0
XAxis mode: Wavelengths
Number of Pixels in Spectrum: 3648
>>>>>Begin Spectral Data<<<<<
345.248	-122.46
345.464	-122.46
345.681	-122.46
345.898	-162.18
346.114	-142.61
346.331	-28.69
346.548	32.15
346.764	-7.38
346.981	-7.57
347.197	-14.93
347.414	18
347.631	-26.56
347.847	60.43
348.064	-2.15
348.28	27.69
348.497	-56.01
348.713	5.02
348.93	28.08
349.146	32.15
349.363	19.16
349.579	-0.79
349.796	36.99
350.012	-4.28
350.229	48.03
350.445	0.18
350.661	-2.15
350.878	-16.87
351.094	13.35
351.311	31.76
351.527	22.26
351.743	16.26
351.96	31.76
352.176	43.38
352.392	39.31
352.609	30.21
352.825	4.44
353.041	8.7
353.257	-8.54
353.474	32.15
353.69	26.53
353.906	42.22
354.122	-10.09
354.339	71.28
354.555	5.8
354.771	-6.22
354.987	50.94
355.203	66.05
355.42	12
355.636	-5.83
355.852	-32.76
356.068	15.48
356.284	-14.55
356.5	54.23
356.716	20.71
356.932	6.18
357.148	45.32
357.364	12.96
357.58	66.63
357.796	42.8
358.012	70.31
358.228	15.48
358.444	-36.63
358.66	77.68
358.876	34.66
359.092	-24.82
359.308	27.3
359.524	20.33
359.74	11.61
359.956	6.18
360.172	22.65
360.388	42.22
360.604	4.44
360.819	88.53
361.035	27.88
361.251	37.18
361.467	-5.05
361.683	58.11
361.898	12.96
362.114	47.45
362.33	19.94
362.546	41.45
362.762	28.46
362.977	20.71
363.193	-4.08
363.409	35.44
363.624	-0.02
363.84	7.73
364.056	-0.98
364.271	34.28
364.487	14.51
364.703	17.03
364.918	11.03
365.134	9.86
365.35	8.12
365.565	99.38
365.781	16.06
365.996	38.73
366.212	78.65
366.427	45.9
366.643	-12.03
366.858	9.67
367.074	-39.15
367.289	80.97
367.505	99.76
367.72	2.12
367.936	46.1
368.151	100.93
368.367	35.25
368.582	3.08
368.798	26.14
369.013	67.41
369.228	39.12
369.444	23.23
369.659	63.34
369.874	36.99
370.09	61.4
370.305	-4.08
370.52	-6.02
370.736	85.81
370.951	45.32
371.166	103.64
371.381	91.24
371.597	37.76
371.812	-14.74
372.027	3.28
372.242	14.32
372.458	116.62
372.673	14.51
372.888	27.69
373.103	78.26
373.318	112.16
373.533	39.7
373.749	44.35
373.964	-21.52
374.179	63.53
374.394	-3.89
374.609	81.36
374.824	-4.28
375.039	62.18
375.254	5.99
375.469	90.08
375.684	39.51
375.899	100.15
376.114	40.09
376.329	69.35
376.544	68.96
376.759	73.41
376.974	0.37
377.189	23.43
377.404	20.33
377.619	89.11
377.834	-0.98
378.049	37.38
378.264	-9.12
378.478	53.46
378.693	21.88
378.908	80.97
379.123	26.72
379.338	76.32
379.553	71.86
379.767	58.11
379.982	73.61
380.197	70.51
380.412	29.82
380.626	55.59
380.841	117.98
381.056	58.69
381.271	107.71
381.485	44.74
381.7	11.41
381.915	34.08
382.129	14.9
382.344	67.21
382.559	39.7
382.773	83.1
382.988	-5.05
383.202	41.45
383.417	43.19
383.632	118.56
383.846	55.98
384.061	42.22
384.275	55.4
384.49	77.68
384.704	74.19
384.919	74
385.133	62.56
385.348	74.38
385.562	10.45
385.777	73.61
385.991	46.48
386.206	58.3
386.42	57.91
386.634	86.2
386.849	73.03
387.063	73.41
387.277	8.51
387.492	40.09
387.706	17.03
387.92	22.85
388.135	68.38
388.349	81.16
388.563	47.26
388.778	61.98
388.992	76.51
389.206	80.78
389.42	133.67
389.635	90.46
389.849	92.01
390.063	98.41
390.277	73.03
390.491	92.21
390.706	86.98
390.92	94.53
391.134	58.11
391.348	110.81
391.562	31.18
391.776	92.79
391.99	15.87
392.205	123.4
392.419	65.47
392.633	60.24
392.847	131.93
393.061	35.63
393.275	109.45
393.489	63.15
393.703	57.91
393.917	101.89
394.131	27.69
394.345	82.71
394.559	75.74
394.773	47.06
394.986	104.03
395.2	68.96
395.414	90.27
395.628	54.62
395.842	79.61
396.056	63.53
396.27	8.51
396.484	103.06
396.697	81.55
396.911	104.8
397.125	94.15
397.339	106.93
397.553	81.94
397.766	116.81
397.98	121.46
398.194	110.81
398.408	82.13
398.621	115.07
398.835	133.67
399.049	131.15
399.262	144.52
399.476	122.24
399.69	137.35
399.903	166.99
400.117	110.03
400.331	121.66
400.544	105.77
400.758	212.52
400.971	124.56
401.185	145.29
401.398	94.15
401.612	138.71
401.826	164.48
402.039	152.27
402.253	106.74
402.466	132.51
402.68	123.59
402.893	141.81
403.106	141.81
403.32	135.61
403.533	135.03
403.747	127.08
403.96	133.86
404.174	158.08
404.387	111.78
404.6	132.7
404.814	152.27
405.027	161.57
405.24	121.85
405.454	118.56
405.667	158.47
405.88	96.28
406.094	132.89
406.307	166.61
406.52	136.77
406.733	101.31
406.947	99.96
407.16	198.77
407.373	155.18
407.586	130.96
407.799	109.84
408.012	193.15
408.226	149.56
408.439	138.51
408.652	92.6
408.865	154.98
409.078	192.96
409.291	154.79
409.504	141.61
409.717	177.46
409.93	167.58
410.143	149.36
410.357	102.09
410.57	125.73
410.783	136.58
410.996	147.81
411.209	121.66
411.421	208.84
411.634	143.55
411.847	146.26
412.06	167.58
412.273	140.84
412.486	180.17
412.699	222.6
412.912	166.41
413.125	201.67
413.338	149.56
413.55	168.35
413.763	177.46
413.976	179.39
414.189	156.53
414.402	150.91
414.615	231.51
414.827	152.85
415.04	214.66
415.253	185.4
415.466	224.15
415.678	240.04
415.891	179.78
416.104	181.33
416.316	170.29
416.529	136.77
416.742	230.16
416.954	236.16
417.167	184.82
417.38	195.09
417.592	223.37
417.805	149.94
418.017	132.89
418.23	177.65
418.442	169.71
418.655	174.94
418.868	203.81
419.08	204.58
419.293	215.82
419.505	223.57
419.718	188.69
419.93	221.44
420.142	163.31
420.355	220.08
420.567	254.57
420.78	230.16
420.992	178.81
421.205	276.46
421.417	147.04
421.629	193.15
421.842	175.71
422.054	196.44
422.266	236.16
422.479	238.87
422.691	175.91
422.903	215.62
423.115	164.86
423.328	204.58
423.54	199.54
423.752	202.45
423.964	188.69
424.177	218.72
424.389	193.92
424.601	306.1
424.813	206.91
425.025	258.25
425.238	230.16
425.45	213.88
425.662	201.09
425.874	487.84
426.086	213.49
426.298	243.91
426.51	229.19
426.722	211.17
426.934	197.41
427.146	241.59
427.358	162.15
427.57	248.17
427.782	213.3
427.994	234.61
428.206	181.33
428.418	198.19
428.63	233.84
428.842	267.36
429.054	217.56
429.266	225.7
429.478	185.21
429.69	219.5
429.902	191.99
430.114	212.52
430.325	196.06
430.537	173
430.749	181.14
430.961	148.78
431.173	174.74
431.384	216.4
431.596	117.59
431.808	200.9
432.02	240.62
432.231	289.64
432.443	293.51
432.655	265.22
432.867	228.22
433.078	273.36
433.29	308.62
433.502	269.49
433.713	341.17
433.925	266
434.136	278.79
434.348	242.75
434.56	209.42
434.771	351.05
434.983	179.01
435.194	248.56
435.406	229.96
435.617	313.27
435.829	348.73
436.04	312.89
436.252	309.59
436.463	332.45
436.675	330.52
436.886	312.89
437.098	321.8
437.309	334.39
437.521	307.27
437.732	331.1
437.943	304.75
438.155	309.2
438.366	240.42
438.578	346.99
438.789	286.54
439	292.74
439.211	282.27
439.423	294.87
439.634	314.24
439.845	322.96
440.057	320.44
440.268	332.84
440.479	283.63
440.69	323.74
440.902	301.45
441.113	300.87
441.324	295.64
441.535	329.35
441.746	377.02
441.957	288.86
442.168	297.19
442.38	349.31
442.591	335.94
442.802	305.52
443.013	331.87
443.224	391.93
443.435	356.09
443.646	326.84
443.857	343.11
444.068	316.18
444.279	335.94
444.49	420.61
444.701	345.82
444.912	426.42
445.123	372.75
445.334	403.75
445.545	383.02
445.756	390.97
445.967	322.38
446.178	372.95
446.388	366.94
446.599	375.08
446.81	406.27
447.021	347.18
447.232	402.2
447.443	415.38
447.653	354.35
447.864	389.8
448.075	375.85
448.286	400.07
448.496	380.31
448.707	427.58
448.918	363.84
449.129	473.7
449.339	378.95
449.55	422.35
449.761	390.97
449.971	436.3
450.182	387.28
450.393	422.93
450.603	391.93
450.814	461.3
451.024	422.16
451.235	443.86
451.446	505.47
451.656	488.42
451.867	400.85
452.077	401.04
452.288	472.73
452.498	465.95
452.709	413.63
452.919	439.6
453.13	390.19
453.34	414.99
453.55	358.03
453.761	400.85
453.971	428.17
454.182	457.42
454.392	397.94
454.602	507.02
454.813	449.09
455.023	490.55
455.233	386.32
455.444	424.1
455.654	373.33
455.864	432.62
456.075	430.68
456.285	406.27
456.495	423.32
456.705	459.94
456.916	481.25
457.126	520.58
457.336	461.88
457.546	385.93
457.756	428.17
457.967	485.51
458.177	425.45
458.387	463.43
458.597	412.08
458.807	453.35
459.017	441.34
459.227	432.82
459.437	450.25
459.647	466.72
459.857	492.49
460.068	421.58
460.278	499.08
460.488	477.76
460.698	527.56
460.908	473.31
461.117	403.56
461.327	442.89
461.537	489
461.747	502.37
461.957	486.1
462.167	532.98
462.377	512.25
462.587	522.52
462.797	551.19
463.007	501.6
463.216	523.49
463.426	543.44
463.636	508.57
463.846	469.24
464.056	450.45
464.265	486.68
464.475	462.07
464.685	483.38
464.895	526.59
465.104	520.2
465.314	549.06
465.524	491.33
465.733	480.86
465.943	560.3
466.153	559.53
466.362	553.13
466.572	509.15
466.782	507.6
466.991	500.24
467.201	569.02
467.41	458.2
467.62	531.63
467.829	506.44
468.039	562.04
468.249	529.5
468.458	513.22
468.668	540.73
468.877	557.2
469.086	576.58
469.296	575.22
469.505	576.38
469.715	597.69
469.924	568.44
470.134	601.57
470.343	612.23
470.552	553.52
470.762	525.23
470.971	550.61
471.18	598.08
471.39	588.39
471.599	549.06
471.808	600.21
472.018	552.94
472.227	628.69
472.436	622.3
472.645	610.87
472.855	590.14
473.064	650.59
473.273	634.12
473.482	650.97
473.691	645.55
473.901	637.99
474.11	619.97
474.319	714.52
474.528	649.04
474.737	708.52
474.946	677.71
475.155	664.15
475.364	738.74
475.573	685.66
475.783	687.98
475.992	711.62
476.201	718.2
476.41	669.57
476.619	665.7
476.828	673.84
477.037	646.52
477.245	669.96
477.454	702.9
477.663	688.76
477.872	680.62
478.081	764.7
478.29	688.76
478.499	796.48
478.708	741.84
478.917	808.49
479.125	733.9
479.334	745.14
479.543	755.02
479.752	770.9
479.961	768.19
480.169	784.27
480.378	723.82
480.587	863.9
480.796	825.93
481.004	816.05
481.213	830.38
481.422	793.19
481.63	798.61
481.839	821.28
482.048	886.38
482.256	820.12
482.465	841.62
482.674	860.61
482.882	885.99
483.091	936.36
483.299	857.32
483.508	893.35
483.716	897.81
483.925	881.15
484.134	861.58
484.342	848.21
484.551	867.58
484.759	888.12
484.967	918.35
485.176	937.53
485.384	936.95
485.593	934.81
485.801	915.25
486.01	854.41
486.218	830.97
486.426	752.5
486.635	765.67
486.843	792.02
487.051	799.77
487.26	817.6
487.468	868.55
487.676	893.16
487.885	864.1
488.093	918.54
488.301	945.86
488.509	925.71
488.717	987.13
488.926	941.4
489.134	951.09
489.342	930.75
489.55	939.46
489.758	947.02
489.967	953.03
490.175	1072.18
490.383	947.02
490.591	1029.75
490.799	986.74
491.007	1050.29
491.215	1028.98
491.423	1019.09
491.631	1037.89
491.839	1001.08
492.047	1034.21
492.255	963.88
492.463	957.68
492.671	970.46
492.879	1007.66
493.087	1049.13
493.295	1006.5
493.503	1082.64
493.711	1063.27
493.919	1092.72
494.127	1087.87
494.334	1119.84
494.542	1060.56
494.75	1098.14
494.958	1039.83
495.166	1128.95
495.374	1099.69
495.581	1110.54
495.789	1129.72
495.997	1156.65
496.205	1100.27
496.412	1073.54
496.62	1093.3
496.828	1136.7
497.035	1111.51
497.243	1124.88
497.451	1150.26
497.658	1139.02
497.866	1118.1
498.074	1176.03
498.281	1107.06
498.489	1191.92
498.696	1112.09
498.904	1114.61
499.112	1075.47
499.319	1153.55
499.527	1112.48
499.734	1150.45
499.942	1086.32
500.149	1116.74
500.357	1159.17
500.564	1105.31
500.771	1148.52
500.979	1104.15
501.186	1081.48
501.394	1102.21
501.601	1125.85
501.808	1116.74
502.016	1127.01
502.223	1118.87
502.43	1118.68
502.638	1098.92
502.845	1104.73
503.052	1212.45
503.26	1135.92
503.467	1197.34
503.674	1149.68
503.881	1159.95
504.089	1246.94
504.296	1173.7
504.503	1129.14
504.71	1129.34
504.917	1142.71
505.125	1171.19
505.332	1172.35
505.539	1199.09
505.746	1266.32
505.953	1218.65
506.16	1239.38
506.367	1304.1
506.574	1283.95
506.781	1290.15
506.988	1206.84
507.195	1237.64
507.402	1215.94
507.609	1253.33
507.816	1202.77
508.023	1223.5
508.23	1212.26
508.437	1166.92
508.644	1223.5
508.851	1242.87
509.058	1308.94
509.265	1236.09
509.472	1286.66
509.679	1307.39
509.885	1253.72
510.092	1277.55
510.299	1279.49
510.506	1265.93
510.713	1289.76
510.92	1274.07
511.126	1304.68
511.333	1343.23
511.54	1333.55
511.746	1341.88
511.953	1322.11
512.16	1356.41
512.367	1308.75
512.573	1328.31
512.78	1308.75
512.987	1315.92
513.193	1332.77
513.4	1274.26
513.606	1310.49
513.813	1329.48
514.02	1318.82
514.226	1378.11
514.433	1378.69
514.639	1260.89
514.846	1302.55
515.052	1279.1
515.259	1333.35
515.465	1354.08
515.672	1311.07
515.878	1392.45
516.085	1350.01
516.291	1369.58
516.497	1316.69
516.704	1323.86
516.91	1252.75
517.117	1228.54
517.323	1171.96
517.529	1210.13
517.736	1240.35
517.942	1261.86
518.148	1254.88
518.354	1281.43
518.561	1261.47
518.767	1270.19
518.973	1292.86
519.179	1320.18
519.386	1322.7
519.592	1304.1
519.798	1336.65
520.004	1401.36
520.21	1375.59
520.417	1397.68
520.623	1444.56
520.829	1438.56
521.035	1449.6
521.241	1443.4
521.447	1434.49
521.653	1505.79
521.859	1455.61
522.065	1487.38
522.271	1553.45
522.477	1507.53
522.683	1555
522.889	1541.63
523.095	1491.26
523.301	1496.49
523.507	1474.01
523.713	1496.49
523.919	1468.59
524.125	1584.64
524.331	1525.16
524.537	1614.09
524.742	1589.87
524.948	1639.47
525.154	1627.46
525.36	1691.78
525.566	1597.82
525.772	1669.12
525.977	1585.61
526.183	1618.74
526.389	1637.54
526.595	1530.59
526.8	1535.04
527.006	1489.32
527.212	1502.3
527.417	1471.3
527.623	1469.56
527.829	1523.42
528.034	1565.07
528.24	1590.26
528.446	1546.28
528.651	1634.82
528.857	1637.73
529.062	1686.75
529.268	1651.1
529.473	1688.49
529.679	1709.22
529.884	1725.69
530.09	1730.53
530.295	1728.98
530.501	1754.37
530.706	1718.72
530.912	1706.12
531.117	1746.62
531.323	1746.23
531.528	1785.95
531.733	1819.46
531.939	1741.77
532.144	1776.06
532.35	1756.11
532.555	1810.16
532.76	1734.41
532.966	1765.99
533.171	1734.6
533.376	1673.57
533.581	1689.85
533.787	1715.62
533.992	1754.37
534.197	1766.38
534.402	1753.4
534.607	1750.68
534.813	1852.01
535.018	1788.85
535.223	1746.81
535.428	1771.41
535.633	1855.11
535.838	1839.23
536.043	1873.71
536.249	1905.88
536.454	1832.45
536.659	1852.59
536.864	1849.49
537.069	1832.83
537.274	1857.24
537.479	1868.87
537.684	1853.56
537.889	1789.24
538.094	1933.97
538.299	1874.88
538.504	1892.12
538.708	1895.61
538.913	1906.07
539.118	1878.56
539.323	1931.84
539.528	1853.37
539.733	1886.89
539.938	1918.28
540.142	1872.94
540.347	1864.61
540.552	1824.11
540.757	1822.95
540.962	1811.91
541.166	1801.45
541.371	1777.42
541.576	1817.91
541.781	1784.98
541.985	1863.25
542.19	1827.41
542.395	1922.73
542.599	1939.97
542.804	1918.28
543.008	1929.32
543.213	1870.61
543.418	1851.82
543.622	1926.8
543.827	1852.98
544.031	1979.11
544.236	1985.12
544.44	1910.91
544.645	2002.17
544.849	1948.69
545.054	1987.64
545.258	2016.7
545.463	1998.1
545.667	1904.52
545.872	1964.58
546.076	1967.68
546.281	1981.24
546.485	1932.42
546.689	1941.33
546.894	2011.47
547.098	1964.77
547.302	1930.87
547.507	1982.6
547.711	2007.4
547.915	2004.49
548.119	1925.06
548.324	1947.14
548.528	2025.03
548.732	1959.54
548.936	1998.68
549.141	2024.25
549.345	1965.16
549.549	2029.1
549.753	2012.63
549.957	2078.5
550.161	2055.25
550.366	1970.78
550.57	1978.92
550.774	1994.61
550.978	2007.79
551.182	1977.56
551.386	1975.62
551.59	1993.26
551.794	1974.85
551.998	2028.9
552.202	1977.95
552.406	1964
552.61	2018.05
552.814	2007.21
553.018	2023.29
553.222	1976.4
553.426	1976.01
553.63	2062.81
553.833	1993.26
554.037	1951.02
554.241	2011.27
554.445	2027.35
554.649	1977.37
554.853	1993.84
555.056	2027.55
555.26	2067.27
555.464	2051.38
555.668	2034.33
555.871	2046.92
556.075	2051.38
556.279	1997.71
556.483	1975.82
556.686	1992.87
556.89	1985.7
557.094	1987.25
557.297	1921.57
557.501	2017.47
557.704	1901.42
557.908	2003.33
558.112	1917.5
558.315	2010.69
558.519	1978.92
558.722	1912.85
558.926	1938.81
559.129	1863.25
559.333	1843.88
559.536	1882.43
559.74	1857.83
559.943	1847.56
560.147	1846.01
560.35	1871.58
560.553	1890.76
560.757	1870.03
560.96	1961.09
561.164	1881.85
561.367	1961.67
561.57	1928.93
561.774	1923.31
561.977	1880.3
562.18	1846.39
562.384	1969.04
562.587	1857.83
562.79	1889.99
562.993	1851.63
563.197	1941.14
563.4	1976.21
563.603	1937.07
563.806	1944.24
564.009	1863.44
564.212	1915.95
564.416	1827.8
564.619	1894.64
564.822	1818.5
565.025	1932.03
565.228	1871.78
565.431	1879.14
565.634	1765.99
565.837	1837.87
566.04	1754.75
566.243	1810.94
566.446	1698.95
566.649	1806.29
566.852	1767.93
567.055	1812.1
567.258	1801.45
567.461	1834.58
567.664	1867.51
567.867	1736.35
568.07	1799.51
568.273	1791.95
568.475	1851.63
568.678	1751.46
568.881	1732.47
569.084	1744.48
569.287	1677.83
569.489	1706.7
569.692	1740.03
569.895	1773.16
570.098	1713.87
570.3	1670.08
570.503	1613.7
570.706	1646.64
570.909	1635.99
571.111	1590.84
571.314	1592.78
571.516	1637.34
571.719	1658.46
571.922	1625.72
572.124	1629.98
572.327	1635.79
572.529	1604.99
572.732	1608.67
572.935	1666.6
573.137	1676.87
573.34	1613.12
573.542	1654.97
573.745	1662.53
573.947	1641.02
574.15	1609.25
574.352	1570.69
574.554	1654.97
574.757	1626.3
574.959	1565.46
575.162	1572.05
575.364	1554.81
575.566	1685
575.769	1537.37
575.971	1579.8
576.173	1510.82
576.376	1539.69
576.578	1600.53
576.78	1605.76
576.982	1486.41
577.185	1574.18
577.387	1511.21
577.589	1507.34
577.791	1576.7
577.993	1556.36
578.196	1517.22
578.398	1517.61
578.6	1565.27
578.802	1475.76
579.004	1481.18
579.206	1478.08
579.408	1515.47
579.61	1497.46
579.812	1583.67
580.014	1476.73
580.216	1519.35
580.418	1538.72
580.62	1499.97
580.822	1517.99
581.024	1523.22
581.226	1536.21
581.428	1515.47
581.63	1583.87
581.832	1542.79
582.034	1590.07
582.236	1559.65
582.438	1592.97
582.64	1587.94
582.841	1595.69
583.043	1663.69
583.245	1602.08
583.447	1597.04
583.649	1555.58
583.85	1576.31
584.052	1591.23
584.254	1570.89
584.456	1595.1
584.657	1534.46
584.859	1527.29
585.061	1561.39
585.262	1522.06
585.464	1497.84
585.666	1596.07
585.867	1520.12
586.069	1607.31
586.27	1557.52
586.472	1542.99
586.674	1565.85
586.875	1509.27
587.077	1530.59
587.278	1530.78
587.48	1539.89
587.681	1590.65
587.883	1545.7
588.084	1503.66
588.285	1508.5
588.487	1500.56
588.688	1473.63
588.89	1418.99
589.091	1369.78
589.292	1369
589.494	1350.21
589.695	1321.53
589.896	1267.28
590.098	1268.25
590.299	1317.66
590.5	1314.37
590.702	1329.48
590.903	1352.53
591.104	1441.66
591.305	1400.39
591.507	1413.76
591.708	1397.29
591.909	1380.43
592.11	1466.07
592.311	1420.93
592.512	1399.61
592.714	1343.23
592.915	1337.61
593.116	1408.53
593.317	1408.33
593.518	1404.65
593.719	1409.11
593.92	1441.46
594.121	1432.16
594.322	1398.84
594.523	1427.13
594.724	1385.08
594.925	1381.4
595.126	1396.32
595.327	1415.31
595.528	1396.13
595.729	1383.53
595.929	1395.16
596.13	1393.41
596.331	1428.68
596.532	1381.21
596.733	1483.12
596.934	1456.96
597.135	1466.07
597.335	1442.04
597.536	1399.42
597.737	1406.78
597.938	1400.58
598.138	1434.88
598.339	1398.06
598.54	1401.75
598.74	1405.81
598.941	1447.08
599.142	1444.56
599.342	1422.28
599.543	1386.83
599.744	1419.96
599.944	1415.69
600.145	1403.68
600.345	1419.18
600.546	1471.11
600.746	1462
600.947	1485.44
601.147	1425.19
601.348	1438.94
601.548	1392.83
601.749	1424.22
601.949	1341.1
602.15	1385.86
602.35	1400.58
602.551	1477.11
602.751	1342.26
602.951	1390.12
603.152	1335.48
603.352	1407.36
603.552	1382.18
603.753	1444.18
603.953	1418.21
604.153	1412.4
604.354	1428.48
604.554	1402.33
604.754	1407.17
604.954	1386.25
605.155	1415.5
605.355	1433.91
605.555	1457.35
605.755	1474.4
605.955	1424.22
606.155	1413.18
606.356	1399.61
606.556	1440.49
606.756	1404.85
606.956	1361.06
607.156	1489.51
607.356	1400.97
607.556	1394.96
607.756	1416.08
607.956	1446.5
608.156	1423.25
608.356	1358.35
608.556	1436.23
608.756	1405.04
608.956	1345.17
609.156	1374.81
609.356	1390.12
609.556	1362.22
609.755	1379.27
609.955	1374.04
610.155	1383.53
610.355	1383.15
610.555	1323.86
610.755	1359.9
610.954	1308.75
611.154	1346.53
611.354	1406.59
611.554	1351.95
611.753	1351.37
611.953	1293.05
612.153	1371.71
612.352	1357.38
612.552	1262.63
612.752	1275.42
612.951	1340.33
613.151	1368.42
613.351	1292.47
613.55	1284.53
613.75	1339.16
613.949	1283.17
614.149	1323.66
614.348	1327.15
614.548	1292.47
614.747	1253.72
614.947	1271.74
615.146	1243.26
615.346	1336.65
615.545	1348.46
615.745	1295.77
615.944	1320.95
616.144	1314.37
616.343	1283.56
616.542	1287.05
616.742	1286.85
616.941	1265.54
617.14	1205.09
617.34	1269.22
617.539	1273.87
617.738	1275.42
617.938	1332.77
618.137	1253.53
618.336	1225.82
618.535	1288.21
618.734	1283.56
618.934	1285.11
619.133	1242.68
619.332	1290.53
619.531	1282.01
619.73	1284.33
619.929	1312.62
620.128	1323.28
620.328	1324.44
620.527	1251.4
620.726	1287.24
620.925	1256.63
621.124	1246.75
621.323	1279.1
621.522	1189.98
621.721	1203.54
621.92	1222.53
622.119	1284.53
622.318	1215.36
622.517	1240.35
622.715	1242.87
622.914	1181.65
623.113	1239.97
623.312	1176.22
623.511	1233.77
623.71	1214.59
623.909	1207.22
624.107	1273.68
624.306	1190.17
624.505	1186.49
624.704	1212.45
624.902	1150.26
625.101	1225.82
625.3	1211.87
625.499	1183.97
625.697	1146.77
625.896	1179.71
626.095	1200.05
626.293	1145.61
626.492	1149.49
626.69	1214.39
626.889	1140.96
627.088	1204.7
627.286	1147.55
627.485	1145.61
627.683	1147.55
627.882	1146.19
628.08	1056.68
628.279	1089.81
628.477	1161.5
628.676	1095.62
628.874	1126.82
629.073	1070.44
629.271	1093.69
629.469	1116.36
629.668	1119.84
629.866	1073.54
630.065	1044.09
630.263	1141.74
630.461	1088.07
630.66	1127.01
630.858	1126.62
631.056	1147.55
631.254	1112.29
631.453	1074.12
631.651	1159.75
631.849	1107.64
632.047	1114.81
632.245	1097.37
632.444	1136.51
632.642	1162.27
632.84	1161.69
633.038	1150.45
633.236	1111.71
633.434	1125.46
633.632	1116.16
633.83	1123.14
634.028	1160.92
634.227	1136.31
634.425	1193.85
634.623	1150.07
634.821	1122.94
635.019	1159.95
635.216	1135.15
635.414	1172.15
635.612	1149.1
635.81	1134.18
636.008	1208.97
636.206	1150.26
636.404	1136.31
636.602	1072.76
636.8	1152.78
636.997	1163.24
637.195	1175.84
637.393	1168.47
637.591	1200.44
637.789	1167.89
637.986	1155.49
638.184	1150.45
638.382	1184.55
638.58	1193.27
638.777	1209.35
638.975	1169.25
639.173	1145.8
639.37	1144.25
639.568	1147.74
639.765	1189.79
639.963	1096.4
640.161	1175.25
640.358	1173.12
640.556	1105.7
640.753	1098.92
640.951	1116.74
641.148	1138.06
641.346	1101.63
641.543	1117.32
641.741	1152.39
641.938	1081.67
642.136	1106.67
642.333	1065.59
642.531	1183.59
642.728	1180.49
642.925	1126.43
643.123	1099.11
643.32	1144.25
643.517	1114.42
643.715	1109.96
643.912	1096.21
644.109	1077.22
644.306	1105.89
644.504	1102.6
644.701	1128.17
644.898	1125.85
645.095	1087.49
645.293	1070.24
645.49	1113.64
645.687	1095.62
645.884	1120.62
646.081	1028.59
646.278	1030.33
646.475	1045.06
646.672	1035.56
646.87	1081.29
647.067	1024.91
647.264	1067.34
647.461	1023.55
647.658	986.54
647.855	1071.6
648.052	1029.75
648.249	926.29
648.446	1028.59
648.642	998.17
648.839	1016.38
649.036	981.89
649.233	952.06
649.43	959.23
649.627	941.6
649.824	959.42
650.021	978.21
650.217	996.43
650.414	1004.37
650.611	1031.11
650.808	1035.18
651.004	1046.41
651.201	1041.18
651.398	1071.6
651.595	1011.93
651.791	1037.11
651.988	1039.05
652.185	997.59
652.381	1004.95
652.578	971.04
652.775	1009.6
652.971	972.59
653.168	1008.63
653.364	1050.48
653.561	952.25
653.757	992.36
653.954	1002.24
654.15	966.59
654.347	1086.71
654.543	967.56
654.74	941.4
654.936	952.45
655.133	993.71
655.329	987.32
655.525	961.16
655.722	989.06
655.918	932.1
656.115	945.86
656.311	854.22
656.507	853.44
656.704	795.7
656.9	825.73
657.096	847.63
657.292	867.97
657.489	907.3
657.685	933.07
657.881	895.1
658.077	890.25
658.273	927.65
658.47	978.21
658.666	934.62
658.862	957.48
659.058	927.45
659.254	974.92
659.45	932.68
659.646	968.72
659.842	945.86
660.038	991.39
660.234	931.13
660.43	972.59
660.626	1016.96
660.822	976.28
661.018	1002.04
661.214	993.13
661.41	949.54
661.606	958.65
661.802	994.68
661.998	973.76
662.194	945.66
662.39	964.26
662.586	975.89
662.781	996.62
662.977	989.64
663.173	977.83
663.369	972.4
663.564	954.58
663.76	1003.4
663.956	942.76
664.152	996.81
664.347	904.4
664.543	902.65
664.739	942.95
664.934	894.9
665.13	907.5
665.326	953.03
665.521	967.95
665.717	893.74
665.912	917.38
666.108	843.37
666.304	904.01
666.499	928.42
666.695	839.3
666.89	924.93
667.086	934.62
667.281	931.52
667.477	978.6
667.672	914.86
667.867	917.96
668.063	958.45
668.258	885.41
668.454	870.88
668.649	997.01
668.844	905.56
669.04	951.86
669.235	913.7
669.43	906.33
669.626	881.34
669.821	890.83
670.016	888.51
670.211	897.23
670.407	864.87
670.602	894.32
670.797	884.25
670.992	931.91
671.187	866.23
671.382	954.19
671.578	865.07
671.773	888.51
671.968	855.38
672.163	897.61
672.358	883.28
672.553	872.04
672.748	879.98
672.943	916.41
673.138	900.71
673.333	916.6
673.528	838.72
673.723	908.46
673.918	879.79
674.113	851.12
674.308	973.95
674.503	882.5
674.698	898.78
674.892	904.2
675.087	880.76
675.282	900.71
675.477	890.06
675.672	896.65
675.867	836.97
676.061	833.87
676.256	832.9
676.451	868.94
676.646	869.91
676.84	841.82
677.035	831.16
677.23	849.37
677.424	891.41
677.619	917.96
677.814	914.47
678.008	915.44
678.203	823.6
678.397	845.3
678.592	868.94
678.787	885.21
678.981	839.49
679.176	880.18
679.37	871.46
679.565	847.63
679.759	872.23
679.954	866.62
680.148	901.3
680.342	891.8
680.537	902.85
680.731	848.21
680.926	856.15
681.12	856.54
681.314	837.75
681.509	837.17
681.703	853.83
681.897	867.39
682.092	847.24
682.286	862.74
682.48	898.2
682.674	889.28
682.869	850.73
683.063	860.03
683.257	927.45
683.451	848.79
683.645	850.53
683.839	844.92
684.034	852.86
684.228	872.23
684.422	789.31
684.616	805.97
684.81	874.95
685.004	842.98
685.198	808.88
685.392	855.57
685.586	829.42
685.78	859.64
685.974	854.99
686.168	869.91
686.362	882.89
686.556	765.09
686.75	728.47
686.944	711.42
687.138	698.83
687.331	652.52
687.525	656.4
687.719	568.63
687.913	634.31
688.107	624.04
688.301	629.27
688.494	669.77
688.688	613.78
688.882	596.92
689.076	581.81
689.269	660.66
689.463	730.8
689.657	635.67
689.85	654.66
690.044	668.22
690.238	653.3
690.431	670.35
690.625	658.92
690.818	687.21
691.012	724.4
691.205	711.81
691.399	706.97
691.593	716.27
691.786	788.73
691.98	803.07
692.173	817.4
692.366	773.04
692.56	806.75
692.753	825.35
692.947	733.51
693.14	817.6
693.333	844.53
693.527	776.72
693.72	790.86
693.914	773.62
694.107	790.09
694.3	772.26
694.493	746.3
694.687	852.47
694.88	794.93
695.073	843.17
695.266	848.98
695.46	847.05
695.653	879.02
695.846	860.42
696.039	796.28
696.232	814.69
696.425	903.81
696.618	887.35
696.812	895.48
697.005	983.83
697.198	982.86
697.391	974.73
697.584	966.4
697.777	1009.41
697.97	984.8
698.163	1002.63
698.356	982.28
698.549	1067.34
698.742	1045.83
698.935	982.48
699.127	1021.81
699.32	974.34
699.513	973.95
699.706	998.56
699.899	1052.03
700.092	1014.06
700.285	1041.76
700.477	987.13
700.67	1003.4
700.863	1063.07
701.056	1143.48
701.248	1112.48
701.441	1102.79
701.634	1082.26
701.826	1166.54
702.019	1068.69
702.212	1157.24
702.404	1106.67
702.597	1104.92
702.79	1130.5
702.982	1170.6
703.175	1201.22
703.367	1193.08
703.56	1185.72
703.752	1273.87
703.945	1214.59
704.137	1243.45
704.33	1277.17
704.522	1295.38
704.715	1284.14
704.907	1314.37
705.1	1349.82
705.292	1343.04
705.484	1312.82
705.677	1381.4
705.869	1400.97
706.061	1427.9
706.254	1425.38
706.446	1404.26
706.638	1409.69
706.831	1479.44
707.023	1385.47
707.215	1538.53
707.407	1514.7
707.599	1477.5
707.792	1559.46
707.984	1567.79
708.176	1561.2
708.368	1514.12
708.56	1568.17
708.752	1560.81
708.944	1572.24
709.136	1579.22
709.329	1560.04
709.521	1707.87
709.713	1673.77
709.905	1665.05
710.097	1716.2
710.289	1642.77
710.481	1644.9
710.672	1686.36
710.864	1727.24
711.056	1761.92
711.248	1751.46
711.44	1734.41
711.632	1765.6
711.824	1796.02
712.016	1866.74
712.207	1810.55
712.399	1824.5
712.591	1888.83
712.783	1884.18
712.975	1890.38
713.166	1822.18
713.358	1890.57
713.55	1957.02
713.741	1955.47
713.933	1986.47
714.125	1950.05
714.316	1949.86
714.508	2012.44
714.7	2020.19
714.891	1960.9
715.083	2053.12
715.274	1981.44
715.466	1996.55
715.657	2046.34
715.849	1937.07
716.04	1981.44
716.232	1939.01
716.423	2010.11
716.615	1950.24
716.806	1883.79
716.998	1852.01
717.189	1808.61
717.381	1743.9
717.572	1696.05
717.763	1713.68
717.955	1706.7
718.146	1689.85
718.337	1623.78
718.528	1580.19
718.72	1521.09
718.911	1598.59
719.102	1571.66
719.293	1613.32
719.485	1574.57
719.676	1564.88
719.867	1545.31
720.058	1558.49
720.249	1561.39
720.44	1586.97
720.632	1661.56
720.823	1689.85
721.014	1835.93
721.205	1822.95
721.396	1900.26
721.587	2022.12
721.778	2001.39
721.969	2079.47
722.16	2148.45
722.351	2179.06
722.542	2261.21
722.733	2262.95
722.924	2188.94
723.115	2237.96
723.305	2211.61
723.496	2206.18
723.687	2088.39
723.878	2125.78
724.069	2154.45
724.26	2104.47
724.45	2096.14
724.641	2052.93
724.832	2101.56
725.023	2069.98
725.213	2109.5
725.404	2053.32
725.595	2085.29
725.785	2070.37
725.976	2153.29
726.167	2137.79
726.357	2161.23
726.548	2246.68
726.739	2150.38
726.929	2284.65
727.12	2246.29
727.31	2261.21
727.501	2231.95
727.691	2262.56
727.882	2275.55
728.072	2303.25
728.263	2294.34
728.453	2384.62
728.644	2390.05
728.834	2375.52
729.024	2314.1
729.215	2332.31
729.405	2369.32
729.596	2424.15
729.786	2456.31
729.976	2465.8
730.167	2464.64
730.357	2429.19
730.547	2444.3
730.737	2484.02
730.928	2546.21
731.118	2586.51
731.308	2487.89
731.498	2543.69
731.688	2678.54
731.879	2644.83
732.069	2697.14
732.259	2743.64
732.449	2777.74
732.639	2841.48
732.829	2859.11
733.019	2922.85
733.209	2983.11
733.399	3000.16
733.589	3071.46
733.779	3120.67
733.969	3133.85
734.159	3182.67
734.349	3232.08
734.539	3258.62
734.729	3275.09
734.919	3335.34
735.109	3305.12
735.299	3266.76
735.488	3335.34
735.678	3293.69
735.868	3305.7
736.058	3293.49
736.248	3284.58
736.437	3286.91
736.627	3263.27
736.817	3356.85
737.007	3328.75
737.196	3402.96
737.386	3376.61
737.576	3340.38
737.765	3435.9
737.955	3426.79
738.144	3542.65
738.334	3472.52
738.524	3461.86
738.713	3454.69
738.903	3404.12
739.092	3497.9
739.282	3558.54
739.471	3556.8
739.661	3529.86
739.85	3521.53
740.04	3553.31
740.229	3600.39
740.419	3624.61
740.608	3680.41
740.797	3644.95
740.987	3689.32
741.176	3661.23
741.365	3630.81
741.555	3564.35
741.744	3698.04
741.933	3661.23
742.123	3718.38
742.312	3728.26
742.501	3750.54
742.69	3731.17
742.88	3687.57
743.069	3861.75
743.258	3774.76
743.447	3830.56
743.636	3841.8
743.825	3785.03
744.014	3810.99
744.204	3890.23
744.393	3778.64
744.582	3862.33
744.771	3932.47
744.96	3865.82
745.149	3873.18
745.338	3838.12
745.527	3899.73
745.716	3872.22
745.905	3832.89
746.094	3905.54
746.283	3927.63
746.471	3884.42
746.66	3950.49
746.849	3929.37
747.038	3929.76
747.227	3911.93
747.416	3920.27
747.604	3898.37
747.793	3941.96
747.982	3909.03
748.171	3957.46
748.359	3925.11
748.548	3933.44
748.737	3912.52
748.926	3914.65
749.114	3844.9
749.303	3937.51
749.491	3904.38
749.68	3817.19
749.869	3904.38
750.057	3874.15
750.246	3874.35
750.434	3869.31
750.623	3908.06
750.811	3843.74
751	3872.99
751.188	3849.16
751.377	3853.62
751.565	3865.63
751.754	3820.87
751.942	3781.54
752.131	3855.36
752.319	3839.67
752.507	3812.54
752.696	3840.64
752.884	3901.08
753.072	3810.8
753.261	3831.14
753.449	3869.12
753.637	3790.07
753.825	3942.74
754.014	3877.64
754.202	3832.5
754.39	3907.87
754.578	3883.07
754.766	3824.17
754.955	3791.81
755.143	3900.89
755.331	3757.32
755.519	3782.32
755.707	3818.55
755.895	3791.04
756.083	3773.99
756.271	3753.26
756.459	3714.12
756.647	3786.39
756.835	3801.89
757.023	3738.14
757.211	3723.03
757.399	3736.21
757.587	3758.68
757.775	3695.13
757.963	3660.06
758.151	3673.63
758.339	3659.48
758.526	3654.64
758.714	3682.92
758.902	3507.97
759.09	3415.36
759.278	3177.63
759.465	2940.68
759.653	2588.06
759.841	2326.5
760.028	2009.34
760.216	1730.92
760.404	1607.7
760.591	1319.79
760.779	1113.84
760.967	960.2
761.154	825.93
761.342	861.38
761.529	874.17
761.717	904.98
761.905	911.56
762.092	956.32
762.28	885.41
762.467	884.44
762.655	815.85
762.842	874.75
763.029	840.65
763.217	856.35
763.404	864.29
763.592	859.64
763.779	827.87
763.966	892.38
764.154	930.75
764.341	997.59
764.528	994.88
764.716	1069.08
764.903	1121.39
765.09	1208.39
765.277	1271.35
765.465	1449.6
765.652	1499.01
765.839	1590.07
766.026	1722.4
766.213	1774.13
766.4	1916.53
766.588	2099.62
766.775	2138.95
766.962	2233.11
767.149	2314.29
767.336	2467.94
767.523	2438.29
767.71	2619.64
767.897	2695.01
768.084	2777.16
768.271	2841.87
768.458	2883.52
768.645	2966.25
768.832	2953.66
769.019	2991.83
769.206	3070.3
769.392	3086.57
769.579	3205.53
769.766	3152.83
769.953	3191.39
770.14	3243.51
770.327	3247.77
770.513	3259.59
770.7	3349.1
770.887	3243.31
771.073	3270.24
771.26	3264.43
771.447	3263.27
771.634	3304.54
771.82	3366.34
772.007	3260.17
772.193	3271.99
772.38	3342.51
772.567	3297.17
772.753	3308.22
772.94	3376.61
773.126	3333.21
773.313	3352.2
773.499	3319.46
773.686	3367.31
773.872	3283.03
774.059	3318.1
774.245	3248.93
774.432	3269.47
774.618	3209.79
774.804	3298.72
774.991	3223.55
775.177	3358.01
775.363	3207.66
775.55	3304.15
775.736	3242.15
775.922	3252.03
776.109	3217.93
776.295	3252.81
776.481	3240.6
776.667	3296.4
776.853	3247.57
777.04	3227.62
777.226	3193.91
777.412	3277.41
777.598	3163.49
777.784	3243.89
777.97	3179.76
778.156	3235.18
778.342	3209.6
778.528	3147.41
778.715	3134.04
778.901	3164.65
779.087	3135.59
779.272	3103.43
779.458	3122.61
779.644	3135.01
779.83	3103.23
780.016	3209.99
780.202	3096.45
780.388	3113.5
780.574	3020.12
780.76	3092.96
780.946	3134.04
781.131	3096.06
781.317	3034.07
781.503	3034.65
781.689	3052.28
781.874	3171.04
782.06	3022.25
782.246	3043.95
782.432	3042.2
782.617	3079.79
782.803	3086.57
782.989	3016.43
783.174	2994.93
783.36	2968
783.545	2984.47
783.731	2999.97
783.916	2871.71
784.102	2933.32
784.288	2944.17
784.473	2979.82
784.659	2927.31
784.844	2990.86
785.029	2882.36
785.215	2922.66
785.4	2840.51
785.586	2975.55
785.771	2852.91
785.956	2930.22
786.142	2907.55
786.327	2888.37
786.512	2884.11
786.698	2846.13
786.883	2789.75
787.068	2813.19
787.254	2884.69
787.439	2750.61
787.624	2822.49
787.809	2757.59
787.994	2805.44
788.18	2823.85
788.365	2744.03
788.55	2778.9
788.735	2783.74
788.92	2751.19
789.105	2713.61
789.29	2735.5
789.475	2682.8
789.66	2682.22
789.845	2694.43
790.03	2630.68
790.215	2683
790.4	2667.88
790.585	2681.64
790.77	2653.93
790.955	2625.26
791.14	2668.46
791.325	2705.86
791.51	2567.72
791.695	2659.55
791.879	2668.46
792.064	2599.3
792.249	2660.52
792.434	2625.84
792.618	2640.37
792.803	2662.85
792.988	2606.66
793.173	2668.27
793.357	2630.3
793.542	2614.02
793.727	2615.38
793.911	2707.21
794.096	2621.77
794.281	2652.19
794.465	2729.88
794.65	2630.3
794.834	2733.95
795.019	2754.49
795.203	2761.85
795.388	2709.54
795.572	2756.62
795.757	2689
795.941	2710.9
796.126	2681.83
796.31	2597.75
796.494	2692.1
796.679	2638.63
796.863	2631.65
797.048	2737.63
797.232	2710.7
797.416	2691.33
797.601	2710.31
797.785	2715.16
797.969	2717.87
798.153	2689.39
798.338	2683.58
798.522	2757.01
798.706	2757.98
798.89	2772.31
799.074	2853.88
799.258	2812.03
799.443	2740.93
799.627	2719.81
799.811	2799.83
799.995	2715.16
800.179	2705.28
800.363	2708.57
800.547	2718.26
800.731	2721.74
800.915	2664.4
801.099	2686.87
801.283	2694.04
801.467	2706.83
801.651	2673.7
801.835	2743.06
802.019	2704.31
802.202	2722.71
802.386	2734.53
802.57	2649.09
802.754	2652.19
802.938	2637.85
803.121	2674.28
803.305	2706.25
803.489	2645.99
803.673	2704.11
803.856	2686.1
804.04	2645.8
804.224	2709.35
804.407	2671.76
804.591	2635.14
804.775	2689.2
804.958	2683.58
805.142	2769.21
805.326	2692.3
805.509	2703.53
805.693	2742.09
805.876	2741.12
806.06	2700.82
806.243	2728.72
806.427	2767.28
806.61	2756.62
806.794	2716.51
806.977	2762.43
807.16	2732.4
807.344	2698.5
807.527	2704.89
807.71	2718.45
807.894	2702.95
808.077	2729.49
808.26	2654.71
808.444	2659.55
808.627	2737.63
808.81	2677.38
808.993	2614.02
809.177	2588.25
809.36	2618.48
809.543	2615.18
809.726	2540.59
809.909	2521.99
810.092	2530.9
810.276	2520.64
810.459	2537.3
810.642	2507.65
810.825	2453.21
811.008	2472.59
811.191	2389.27
811.374	2415.62
811.557	2397.02
811.74	2449.92
811.923	2397.41
812.106	2346.65
812.289	2308.68
812.472	2342.58
812.654	2327.47
812.837	2319.14
813.02	2204.44
813.203	2216.06
813.386	2106.98
813.569	2079.09
813.751	2026
813.934	2069.4
814.117	2037.82
814.3	1975.04
814.482	1923.51
814.665	1902.78
814.848	1859.76
815.03	1831.09
815.213	1787.88
815.396	1824.11
815.578	1768.7
815.761	1724.33
815.943	1806.29
816.126	1657.1
816.309	1681.32
816.491	1622.04
816.674	1543.76
816.856	1635.4
817.039	1628.62
817.221	1717.75
817.403	1635.21
817.586	1653.04
817.768	1650.32
817.951	1566.82
818.133	1577.47
818.315	1630.17
818.498	1653.81
818.68	1718.13
818.862	1677.45
819.045	1690.62
819.227	1673.96
819.409	1675.32
819.591	1695.08
819.774	1665.24
819.956	1631.92
820.138	1719.49
820.32	1698.95
820.502	1789.82
820.684	1835.93
820.866	1860.73
821.048	1880.69
821.231	1921.76
821.413	1884.76
821.595	1911.3
821.777	1893.48
821.959	1882.82
822.141	1941.52
822.323	1791.56
822.505	1735.57
822.686	1684.62
822.868	1594.72
823.05	1507.92
823.232	1466.84
823.414	1415.11
823.596	1472.85
823.778	1448.83
823.96	1479.63
824.141	1470.72
824.323	1522.26
824.505	1610.02
824.687	1673.96
824.868	1703.41
825.05	1782.07
825.232	1787.88
825.413	1901.23
825.595	1873.33
825.777	1773.35
825.958	1815.2
826.14	1815.2
826.321	1865.96
826.503	1840.39
826.685	1863.64
826.866	1854.34
827.048	1877.39
827.229	1800.86
827.411	1760.76
827.592	1670.47
827.773	1724.33
827.955	1643.35
828.136	1706.12
828.318	1649.94
828.499	1670.08
828.68	1611.57
828.862	1646.06
829.043	1660.98
829.224	1621.07
829.406	1625.14
829.587	1641.41
829.768	1624.36
829.949	1656.72
830.131	1675.32
830.312	1664.08
830.493	1640.05
830.674	1658.65
830.855	1637.34
831.036	1674.73
831.218	1718.33
831.399	1735.96
831.58	1691.98
831.761	1674.73
831.942	1671.83
832.123	1691.59
832.304	1619.9
832.485	1635.4
832.666	1681.13
832.847	1684.23
833.028	1648
833.209	1682.1
833.389	1662.14
833.57	1591.04
833.751	1630.95
833.932	1682.87
834.113	1662.72
834.294	1618.16
834.475	1652.84
834.655	1726.47
834.836	1729.57
835.017	1700.7
835.198	1633.85
835.378	1684.81
835.559	1749.91
835.74	1690.62
835.92	1661.17
836.101	1664.08
836.281	1711.93
836.462	1724.53
836.643	1745.84
836.823	1764.83
837.004	1756.5
837.184	1764.25
837.365	1714.84
837.545	1750.88
837.726	1757.85
837.906	1782.85
838.087	1735.77
838.267	1766.76
838.448	1705.35
838.628	1731.31
838.808	1707.28
838.989	1784.01
839.169	1720.65
839.349	1757.66
839.53	1778.78
839.71	1778.58
839.89	1717.55
840.07	1816.17
840.251	1720.65
840.431	1754.95
840.611	1720.65
840.791	1728.21
840.971	1734.02
841.151	1747.97
841.332	1676.09
841.512	1761.15
841.692	1673.96
841.872	1714.65
842.052	1714.84
842.232	1801.25
842.412	1654
842.592	1737.12
842.772	1737.9
842.952	1737.32
843.132	1687.52
843.312	1666.79
843.492	1699.53
843.672	1710
843.851	1635.21
844.031	1691.01
844.211	1671.63
844.391	1679.38
844.571	1711.93
844.751	1725.5
844.93	1668.73
845.11	1692.56
845.29	1671.25
845.47	1713.29
845.649	1716
845.829	1690.62
846.009	1679
846.188	1683.26
846.368	1684.42
846.547	1663.11
846.727	1723.95
846.907	1633.47
847.086	1665.63
847.266	1738.67
847.445	1666.99
847.625	1640.83
847.804	1628.24
847.984	1677.64
848.163	1605.57
848.343	1629.59
848.522	1626.49
848.701	1672.99
848.881	1606.54
849.06	1652.84
849.239	1607.12
849.419	1602.47
849.598	1567.4
849.777	1559.84
849.957	1569.72
850.136	1528.65
850.315	1454.44
850.494	1525.36
850.674	1488.16
850.853	1561.59
851.032	1520.9
851.211	1573.02
851.39	1524.39
851.569	1474.98
851.748	1492.81
851.927	1545.7
852.107	1530.01
852.286	1446.89
852.465	1495.13
852.644	1562.94
852.823	1537.17
853.002	1515.67
853.181	1510.63
853.359	1537.95
853.538	1447.28
853.717	1495.91
853.896	1440.3
854.075	1363.77
854.254	1331.61
854.433	1271.74
854.611	1322.11
854.79	1273.29
854.969	1338
855.148	1344.78
855.327	1327.35
855.505	1362.41
855.684	1384.7
855.863	1419.96
856.041	1314.17
856.22	1396.13
856.399	1401.55
856.577	1456.38
856.756	1468.39
856.934	1554.42
857.113	1514.51
857.291	1454.06
857.47	1462
857.648	1493.19
857.827	1469.94
858.005	1528.65
858.184	1456.38
858.362	1528.46
858.541	1439.14
858.719	1449.99
858.898	1423.06
859.076	1419.38
859.254	1500.36
859.433	1452.51
859.611	1430.42
859.789	1383.15
859.967	1460.45
860.146	1513.15
860.324	1394.19
860.502	1438.56
860.68	1360.86
860.859	1401.94
861.037	1379.66
861.215	1431.19
861.393	1430.23
861.571	1418.79
861.749	1373.07
861.927	1418.41
862.105	1412.59
862.283	1399.03
862.461	1364.93
862.639	1349.63
862.817	1335.1
862.995	1378.88
863.173	1380.82
863.351	1350.21
863.529	1370.55
863.707	1386.44
863.885	1398.45
864.063	1319.79
864.241	1329.86
864.418	1405.81
864.596	1322.31
864.774	1287.05
864.952	1330.45
865.129	1350.4
865.307	1299.06
865.485	1257.21
865.663	1344.4
865.84	1243.07
866.018	1284.72
866.196	1179.71
866.373	1186.3
866.551	1122.56
866.728	1085.16
866.906	1127.01
867.084	1183.39
867.261	1163.44
867.439	1166.73
867.616	1243.84
867.794	1226.4
867.971	1241.32
868.149	1205.29
868.326	1278.13
868.503	1311.65
868.681	1247.72
868.858	1222.53
869.035	1206.25
869.213	1267.28
869.39	1220.79
869.567	1256.63
869.745	1234.54
869.922	1259.15
870.099	1266.12
870.276	1268.25
870.454	1284.53
870.631	1277.36
870.808	1233.57
870.985	1256.43
871.162	1313.78
871.339	1224.85
871.517	1205.29
871.694	1216.33
871.871	1215.55
872.048	1177.19
872.225	1201.22
872.402	1233.77
872.579	1195.4
872.756	1217.88
872.933	1160.34
873.11	1183
873.287	1200.44
873.463	1191.34
873.64	1194.63
873.817	1169.64
873.994	1197.73
874.171	1148.32
874.348	1191.53
874.524	1130.89
874.701	1145.03
874.878	1100.86
875.055	1164.6
875.231	1178.74
875.408	1172.74
875.585	1125.66
875.762	1128.56
875.938	1118.68
876.115	1119.65
876.291	1121.59
876.468	1130.89
876.645	1084
876.821	1127.59
876.998	1116.16
877.174	1123.52
877.351	1090.59
877.527	1085.16
877.704	1129.14
877.88	1139.22
878.057	1079.93
878.233	1160.53
878.409	1087.68
878.586	1101.63
878.762	1092.52
878.938	1069.66
879.115	1022.39
879.291	1114.03
879.467	1033.04
879.644	1060.94
879.82	1098.14
879.996	1057.84
880.172	993.71
880.349	1058.62
880.525	1082.84
880.701	1005.14
880.877	1035.95
881.053	1052.61
881.229	1039.63
881.405	1090.97
881.581	1031.88
881.757	1076.44
881.933	1070.63
882.109	1093.3
882.285	1044.09
882.461	1006.89
882.637	1083.81
882.813	983.83
882.989	1019.87
883.165	1076.44
883.341	1028.01
883.517	1064.82
883.693	1043.31
883.869	1040.21
884.044	1024.91
884.22	1043.7
884.396	1084.19
884.572	1064.43
884.747	1069.86
884.923	1078.57
885.099	1065.79
885.275	1055.33
885.45	1020.26
885.626	1018.13
885.801	1036.92
885.977	1001.66
886.153	963.68
886.328	1045.83
886.504	988.87
886.679	1038.08
886.855	979.96
887.03	1047.19
887.206	1056.49
887.381	1039.44
887.557	1040.41
887.732	1042.73
887.908	1068.89
888.083	1060.36
888.258	1024.52
888.434	1009.6
888.609	1006.31
888.784	1078.38
888.96	1009.79
889.135	1024.52
889.31	1016.38
889.485	1063.46
889.661	1028.78
889.836	1066.56
890.011	1039.63
890.186	1003.4
890.361	1014.25
890.537	1049.9
890.712	1026.26
890.887	1033.43
891.062	1034.21
891.237	1068.69
891.412	1014.44
891.587	1036.92
891.762	1070.05
891.937	1058.62
892.112	993.33
892.287	1023.16
892.462	960.58
892.637	967.75
892.812	929.97
892.987	937.91
893.161	934.04
893.336	937.33
893.511	932.49
893.686	957.87
893.861	951.28
894.035	907.5
894.21	932.88
894.385	863.32
894.56	915.05
894.734	854.41
894.909	840.46
895.084	813.72
895.258	792.22
895.433	849.95
895.608	808.68
895.782	773.23
895.957	797.06
896.131	772.45
896.306	730.22
896.48	713.55
896.655	720.34
896.829	657.17
897.004	658.92
897.178	678.29
897.353	677.91
897.527	681.59
897.701	722.47
897.876	644.77
898.05	723.82
898.224	710.07
898.399	687.4
898.573	675.39
898.747	599.63
898.921	617.65
899.096	518.84
899.27	536.66
899.444	581.42
899.618	609.32
899.792	584.33
899.967	568.44
900.141	605.83
900.315	561.46
900.489	570.38
900.663	618.81
900.837	584.91
901.011	547.13
901.185	642.84
901.359	580.84
901.533	587.62
901.707	612.61
901.881	592.27
902.055	565.53
902.229	600.79
902.403	649.23
902.576	569.02
902.75	602.73
902.924	711.62
903.098	636.64
903.272	682.75
903.446	740.49
903.619	713.17
903.793	732.74
903.967	737.97
904.14	761.22
904.314	729.05
904.488	763.35
904.661	757.15
904.835	745.33
905.009	760.44
905.182	786.99
905.356	791.25
905.529	788.34
905.703	726.92
905.876	700.77
906.05	687.4
906.223	655.04
906.397	625.98
906.57	601.57
906.744	598.47
906.917	603.7
907.09	584.71
907.264	588.2
907.437	569.99
907.61	521.36
907.784	544.8
907.957	558.94
908.13	540.54
908.304	537.83
908.477	530.85
908.65	536.08
908.823	470.01
908.996	589.17
909.17	512.25
909.343	501.98
909.516	542.67
909.689	507.99
909.862	503.34
910.035	531.63
910.208	497.72
910.381	491.33
910.554	596.53
910.727	523.88
910.9	473.11
911.073	517.29
911.246	550.42
911.419	568.44
911.592	555.07
911.765	487.45
911.938	482.8
912.11	501.6
912.283	513.41
912.456	555.65
912.629	507.8
912.802	500.24
912.974	451.41
913.147	409.95
913.32	372.56
913.493	413.25
913.665	432.43
913.838	442.12
914.01	429.33
914.183	478.73
914.356	467.69
914.528	466.91
914.701	546.54
914.873	468.46
915.046	447.15
915.218	421.77
915.391	354.15
915.563	370.43
915.736	439.6
915.908	450.83
916.081	441.15
916.253	433.78
916.425	464.78
916.598	467.11
916.77	440.37
916.942	423.9
917.115	344.85
917.287	432.43
917.459	393.87
917.632	352.99
917.804	334.78
917.976	397.17
918.148	416.35
918.32	417.12
918.493	439.21
918.665	481.83
918.837	469.05
919.009	505.47
919.181	500.82
919.353	464.78
919.525	462.07
919.697	440.18
919.869	473.89
920.041	506.25
920.213	570.57
920.385	542.28
920.557	496.17
920.729	520.39
920.901	500.24
921.073	472.73
921.244	477.76
921.416	500.43
921.588	483.77
921.76	449.48
921.932	530.85
922.103	464.98
922.275	485.9
922.447	511.67
922.619	427.2
922.79	483.38
922.962	441.15
923.134	476.41
923.305	433.4
923.477	400.27
923.648	410.73
923.82	442.31
923.991	378.95
924.163	365.78
924.335	371.78
924.506	389.42
924.677	427.78
924.849	403.75
925.02	406.66
925.192	428.94
925.363	435.92
925.535	411.31
925.706	365.78
925.877	440.57
926.049	383.41
926.22	414.99
926.391	429.33
926.562	403.75
926.734	407.43
926.905	409.37
927.076	341.17
927.247	377.79
927.419	312.3
927.59	324.9
927.761	321.02
927.932	317.92
928.103	346.99
928.274	309.4
928.445	280.34
928.616	309.59
928.787	282.85
928.958	311.72
929.129	289.64
929.3	279.56
929.471	236.16
929.642	199.74
929.813	154.79
929.984	275.69
930.155	164.09
930.326	232.87
930.496	186.37
930.667	123.59
930.838	174.36
931.009	128.63
931.18	146.84
931.35	148.2
931.521	163.89
931.692	131.73
931.863	92.4
932.033	114.88
932.204	134.25
932.374	117.01
932.545	81.36
932.716	175.71
932.886	113.91
933.057	45.71
933.227	72.25
933.398	119.14
933.568	43.58
933.739	2.12
933.909	45.9
934.08	120.11
934.25	1.15
934.421	26.72
934.591	73.41
934.761	62.56
934.932	-21.13
935.102	38.73
935.272	24.98
935.443	59.85
935.613	63.73
935.783	77.48
935.953	39.12
936.123	167.77
936.294	29.05
936.464	24.2
936.634	37.38
936.804	16.45
936.974	9.48
937.144	60.05
937.314	70.9
937.484	10.64
937.655	8.31
937.825	73.22
937.995	18.2
938.165	94.92
938.334	32.15
938.504	73.22
938.674	49.58
938.844	66.25
939.014	101.7
939.184	108.68
939.354	133.28
939.524	130.18
939.694	98.02
939.863	110.03
940.033	174.16
940.203	131.34
940.373	118.17
940.542	135.22
940.712	80
940.882	115.46
941.051	131.34
941.221	101.31
941.391	143.74
941.56	70.31
941.73	48.81
941.899	206.52
942.069	81.94
942.238	102.48
942.408	86.2
942.577	145.1
942.747	72.06
942.916	48.81
943.086	59.08
943.255	128.24
943.425	89.88
943.594	53.26
943.763	0.76
943.933	52.1
944.102	15.68
944.271	79.03
944.441	91.05
944.61	50.55
944.779	53.65
944.948	141.61
945.117	52.49
945.287	87.95
945.456	30.6
945.625	37.76
945.794	72.25
945.963	61.98
946.132	89.11
946.301	50.94
946.47	49.2
946.639	5.41
946.808	62.95
946.977	88.91
947.146	98.99
947.315	55.59
947.484	91.63
947.653	79.42
947.822	73.8
947.991	29.24
948.16	152.27
948.329	92.79
948.498	72.06
948.666	89.88
948.835	74.58
949.004	24.78
949.173	36.8
949.341	65.28
949.51	97.63
949.679	112.16
949.847	99.18
950.016	136.19
950.185	159.05
950.353	64.11
950.522	52.1
950.69	113.91
950.859	59.66
951.028	113.71
951.196	90.46
951.365	54.23
951.533	61.01
951.701	87.36
951.87	67.21
952.038	22.26
952.207	51.13
952.375	119.14
952.543	74.96
952.712	90.46
952.88	59.85
953.048	125.73
953.217	75.35
953.385	75.16
953.553	103.44
953.721	46.48
953.89	69.93
954.058	43.38
954.226	38.93
954.394	74
954.562	27.11
954.73	62.95
954.898	25.17
955.067	97.83
955.235	47.45
955.403	107.9
955.571	114.68
955.739	96.66
955.907	59.66
956.075	61.01
956.243	58.3
956.41	79.03
956.578	53.65
956.746	19.16
956.914	43.19
957.082	95.31
957.25	111.19
957.418	51.52
957.585	57.33
957.753	102.48
957.921	42.61
958.089	76.71
958.256	69.93
958.424	82.33
958.592	53.26
958.759	63.92
958.927	107.13
959.095	50.75
959.262	80.58
959.43	77.29
959.597	39.12
959.765	49.58
959.932	62.18
960.1	106.74
960.267	63.73
960.435	84.26
960.602	99.57
960.77	79.81
960.937	31.76
961.104	80.97
961.272	40.09
961.439	50.75
961.606	90.08
961.774	100.15
961.941	71.48
962.108	109.64
962.275	82.52
962.443	106.16
962.61	101.31
962.777	141.42
962.944	112.94
963.111	117.2
963.278	109.06
963.446	86.59
963.613	87.75
963.78	110.81
963.947	83.3
964.114	86.59
964.281	144.91
964.448	106.54
964.615	91.82
964.782	101.7
964.949	116.62
965.116	119.53
965.282	125.92
965.449	97.44
965.616	61.98
965.783	108.48
965.95	98.41
966.117	26.33
966.283	101.51
966.45	102.86
966.617	118.56
966.784	153.24
966.95	135.22
967.117	114.1
967.284	95.11
967.45	89.5
967.617	141.42
967.784	133.48
967.95	178.81
968.117	100.15
968.283	151.49
968.45	182.11
968.616	101.7
968.783	148.01
968.949	141.42
969.116	141.81
969.282	92.6
969.449	123.79
969.615	95.31
969.781	90.08
969.948	116.43
970.114	82.52
970.28	160.6
970.447	99.96
970.613	175.13
970.779	102.28
970.945	135.03
971.112	120.3
971.278	96.08
971.444	104.03
971.61	129.41
971.776	110.42
971.942	131.73
972.108	127.86
972.275	135.03
972.441	151.3
972.607	173.78
972.773	108.87
972.939	126.89
973.105	124.76
973.271	80.39
973.437	91.43
973.602	109.45
973.768	125.73
973.934	90.46
974.1	117.39
974.266	43.19
974.432	99.57
974.598	78.26
974.763	117.39
974.929	104.8
975.095	152.08
975.261	73.22
975.426	78.06
975.592	93.37
975.758	155.18
975.923	63.53
976.089	50.36
976.255	122.43
976.42	117.78
976.586	123.79
976.751	85.23
976.917	172.03
977.082	106.54
977.248	46.1
977.413	33.5
977.579	76.32
977.744	104.99
977.91	58.69
978.075	69.73
978.24	140.45
978.406	89.88
978.571	89.5
978.736	65.08
978.902	120.69
979.067	65.28
979.232	43
979.397	113.13
979.563	123.21
979.728	42.8
979.893	88.72
980.058	77.68
980.223	122.82
980.388	102.48
980.554	100.54
980.719	108.87
980.884	100.93
981.049	121.66
981.214	85.04
981.379	128.05
981.544	62.56
981.709	104.03
981.874	70.12
982.039	94.53
982.204	136.96
982.368	96.08
982.533	89.88
982.698	113.91
982.863	134.25
983.028	74.77
983.193	125.53
983.357	105.38
983.522	77.68
983.687	84.85
983.852	105.77
984.016	74.77
984.181	75.35
984.346	129.99
984.51	93.56
984.675	87.95
984.839	135.61
985.004	102.86
985.168	151.11
985.333	89.3
985.498	75.93
985.662	148.78
985.827	116.81
985.991	91.24
986.155	107.13
986.32	133.67
986.484	153.43
986.649	116.04
986.813	30.01
986.977	99.96
987.142	132.51
987.306	61.79
987.47	74.58
987.634	80.97
987.799	104.22
987.963	86.01
988.127	123.21
988.291	173.97
988.455	79.03
988.62	83.88
988.784	117.98
988.948	113.91
989.112	75.93
989.276	126.89
989.44	85.04
989.604	48.81
989.768	84.85
989.932	149.56
990.096	61.98
990.26	55.59
990.424	43
990.588	88.91
990.752	155.37
990.915	118.36
991.079	77.1
991.243	67.6
991.407	86.78
991.571	72.45
991.734	104.03
991.898	97.44
992.062	187.34
992.226	77.87
992.389	72.83
992.553	21.88
992.717	70.51
992.88	69.15
993.044	86.01
993.207	92.79
993.371	94.15
993.535	98.02
993.698	77.68
993.862	97.24
994.025	132.31
994.189	63.53
994.352	92.98
994.515	86.4
994.679	119.33
994.842	68.57
995.006	119.33
995.169	49.39
995.332	72.64
995.496	72.45
995.659	38.35
995.822	79.81
995.985	85.23
996.149	123.4
996.312	90.46
996.475	120.11
996.638	34.08
996.801	107.71
996.964	123.21
997.128	85.81
997.291	84.65
997.454	82.71
997.617	41.45
997.78	121.27
997.943	77.68
998.106	116.23
998.269	38.15
998.432	80
998.595	81.94
998.758	47.26
998.92	41.45
999.083	13.35
999.246	39.12
999.409	49.2
999.572	14.9
999.735	49.58
999.897	69.73
1000.06	66.44
1000.223	46.87
1000.386	93.37
1000.548	83.1
1000.711	97.63
1000.874	74.77
1001.036	56.17
1001.199	83.3
1001.361	63.92
1001.524	63.34
1001.687	104.8
1001.849	45.71
1002.012	80.78
1002.174	65.86
1002.337	68.57
1002.499	46.87
1002.661	114.49
1002.824	29.63
1002.986	21.88
1003.149	66.05
1003.311	52.49
1003.473	131.54
1003.636	51.71
1003.798	74.19
1003.96	77.68
1004.123	77.29
1004.285	53.65
1004.447	49.78
1004.609	59.66
1004.771	100.15
1004.933	15.68
1005.096	39.12
1005.258	25.17
1005.42	29.63
1005.582	100.54
1005.744	72.45
1005.906	16.84
1006.068	51.91
1006.23	15.87
1006.392	10.45
1006.554	5.41
1006.716	84.26
1006.878	102.86
1007.04	15.68
1007.202	33.11
1007.363	49
1007.525	63.73
1007.687	61.01
1007.849	101.31
1008.011	-1.76
1008.172	23.23
1008.334	37.38
1008.496	71.48
1008.658	24.98
1008.819	3.47
1008.981	14.13
1009.143	19.75
1009.304	60.24
1009.466	78.84
1009.627	105.38
1009.789	132.31
1009.95	62.76
1010.112	53.65
1010.273	74
1010.435	43.38
1010.596	21.68
1010.758	47.45
1010.919	40.48
1011.081	18
1011.242	30.4
1011.403	49
1011.565	39.31
1011.726	50.75
1011.887	34.66
1012.049	45.13
1012.21	69.73
1012.371	84.46
1012.532	9.86
1012.693	39.9
1012.855	26.72
1013.016	33.89
1013.177	74.19
1013.338	32.34
1013.499	106.54
1013.66	51.52
1013.821	37.57
1013.982	59.08
1014.143	61.6
1014.304	21.3
1014.465	52.3
1014.626	53.46
1014.787	28.08
1014.948	121.08
1015.109	-9.9
1015.27	52.68
1015.431	32.34
1015.592	12.19
1015.752	71.09
1015.913	49.58
1016.074	39.7
1016.235	47.84
1016.395	48.23
1016.556	37.38
1016.717	37.18
1016.877	65.08
1017.038	11.22
1017.199	61.21
1017.359	22.07
1017.52	12.77
1017.681	14.9
1017.841	44.35
1018.002	37.57
1018.162	54.43
1018.323	105.38
1018.483	34.08
1018.644	20.52
1018.804	1.15
1018.964	14.13
1019.125	29.24
1019.285	40.67
1019.446	9.67
1019.606	-1.76
1019.766	9.86
1019.926	38.73
1020.087	55.59
1020.247	1.92
1020.407	36.8
1020.567	47.65
1020.728	42.8
1020.888	-18.03
1021.048	7.15
1021.208	8.51
1021.368	10.83
1021.528	53.26
1021.688	50.94
1021.848	47.65
1022.008	37.76
1022.168	15.48
1022.328	28.46
1022.488	46.1
1022.648	25.56
1022.808	17.61
1022.968	48.42
1023.128	1.34
1023.288	20.52
1023.448	15.29
1023.608	50.94
1023.767	49.58
1023.927	16.84
1024.087	0.37
1024.247	-24.43
1024.406	34.86
1024.566	13.16
1024.726	-10.48
1024.885	42.61
1025.045	56.36
1025.205	32.92
1025.364	25.36
1025.524	51.33
1025.683	10.83
1025.843	52.3
1026.003	6.18
1026.162	66.83
1026.321	65.28
1026.481	54.04
1026.64	19.75
1026.8	36.02
1026.959	13.55
1027.119	33.11
1027.278	14.13
1027.437	-15.71
1027.597	19.75
1027.756	44.74
1027.915	48.03
1028.074	22.65
1028.234	4.05
1028.393	52.49
1028.552	1.53
1028.711	-26.56
1028.87	53.07
1029.03	-4.47
1029.189	8.31
1029.348	-30.24
1029.507	17.03
1029.666	18.2
1029.825	-1.95
1029.984	-2.34
1030.143	17.03
1030.302	17.42
1030.461	-51.17
1030.62	43.77
1030.779	48.03
1030.938	-9.32
1031.097	-9.7
1031.255	21.1
1031.414	44.16
1031.573	56.17
1031.732	-20.36
1031.891	14.71
1032.049	63.15
1032.208	46.68
1032.367	26.33
1032.525	17.42
1032.684	9.86
1032.843	23.04
1033.001	-21.33
1033.16	136.77
1033.319	33.89
1033.477	40.48
1033.636	29.24
1033.794	-25.78
1033.953	30.79
1034.111	43.58
1034.27	-10.67
1034.428	35.83
1034.587	-28.88
1034.745	9.67
1034.903	18.78
1035.062	27.69
1035.22	-16.87
1035.378	66.44
1035.537	-14.16
1035.695	42.03
1035.853	20.71
1036.011	20.71
1036.17	26.53
1036.328	-30.24
1036.486	33.5
1036.644	32.53
1036.802	-42.45
1036.96	19.75
1037.119	15.87
1037.277	0.57
1037.435	-6.41
1037.593	-12.61
1037.751	18.78
1037.909	23.43
1038.067	23.43
