Data from oakcork_FLMT105791__165__17-31-38-058.txt Node

Date: Mon Mar 20 17:31:38 GMT 2023
User: antho
Spectrometer: FLMT10579
Trigger mode: 0
Integration Time (sec): 1.000000E-1
Scans to average: 10
Electric dark correction enabled: true
Nonlinearity correction enabled: false
Boxcar width: 0
XAxis mode: Wavelengths
Number of Pixels in Spectrum: 3648
>>>>>Begin Spectral Data<<<<<
345.248	-163.23
345.464	-163.23
345.681	-163.23
345.898	-138.43
346.114	-140.37
346.331	-17.34
346.548	22.57
346.764	-20.44
346.981	-30.32
347.197	-3.2
347.414	28.97
347.631	-18.31
347.847	47.18
348.064	23.54
348.28	3.97
348.497	-36.72
348.713	0.1
348.93	20.25
349.146	38.65
349.363	-4.55
349.579	38.07
349.796	30.71
350.012	-3.39
350.229	27.8
350.445	10.37
350.661	-8.62
350.878	9.98
351.094	5.91
351.311	15.21
351.527	21.8
351.743	-17.34
351.96	52.8
352.176	18.31
352.392	5.33
352.609	47.56
352.825	-5.91
353.041	20.63
353.257	-13.08
353.474	9.4
353.69	7.27
353.906	44.27
354.122	-11.33
354.339	61.9
354.555	5.91
354.771	-13.66
354.987	45.43
355.203	57.45
355.42	-14.24
355.636	8.04
355.852	0.48
356.068	10.17
356.284	-21.6
356.5	55.31
356.716	16.95
356.932	10.37
357.148	39.62
357.364	25.67
357.58	34.58
357.796	40.4
358.012	34.97
358.228	36.13
358.444	-56.09
358.66	60.74
358.876	33.03
359.092	-17.15
359.308	4.17
359.524	2.62
359.74	-8.82
359.956	-4.36
360.172	22.18
360.388	27.22
360.604	-3.97
360.819	85.15
361.035	15.6
361.251	20.63
361.467	10.17
361.683	59
361.898	28.38
362.114	41.56
362.33	28
362.546	20.44
362.762	22.38
362.977	51.05
363.193	-11.72
363.409	36.91
363.624	-12.5
363.84	10.17
364.056	7.65
364.271	34.97
364.487	33.42
364.703	-9.01
364.918	-9.98
365.134	20.44
365.35	25.87
365.565	103.56
365.781	45.63
365.996	31.48
366.212	91.93
366.427	44.46
366.643	-0.1
366.858	6.49
367.074	-9.78
367.289	51.63
367.505	91.93
367.72	-24.32
367.936	15.4
368.151	55.9
368.367	25.87
368.582	34.58
368.798	18.7
369.013	65.58
369.228	32.07
369.444	19.28
369.659	66.55
369.874	9.4
370.09	77.4
370.305	-31.87
370.52	-1.65
370.736	86.12
370.951	39.04
371.166	73.14
371.381	90.77
371.597	60.55
371.812	-16.37
372.027	9.78
372.242	18.7
372.458	76.82
372.673	15.98
372.888	36.72
373.103	45.05
373.318	111.7
373.533	63.84
373.749	36.13
373.964	-11.92
374.179	69.07
374.394	-11.53
374.609	85.35
374.824	-14.82
375.039	61.9
375.254	16.37
375.469	89.61
375.684	25.48
375.899	63.84
376.114	20.05
376.329	52.02
376.544	70.04
376.759	58.41
376.974	36.72
377.189	-3.78
377.404	42.92
377.619	55.12
377.834	-5.52
378.049	-2.42
378.264	10.75
378.478	35.17
378.693	20.83
378.908	52.41
379.123	-1.65
379.338	67.33
379.553	46.21
379.767	31.87
379.982	44.85
380.197	58.22
380.412	34.78
380.626	50.08
380.841	108.6
381.056	52.41
381.271	93.29
381.485	28.19
381.7	10.17
381.915	44.66
382.129	19.28
382.344	50.08
382.559	20.25
382.773	53.76
382.988	-8.43
383.202	42.14
383.417	8.43
383.632	114.8
383.846	18.5
384.061	51.83
384.275	13.85
384.49	74.88
384.704	53.38
384.919	40.59
385.133	46.21
385.348	57.06
385.562	24.7
385.777	86.9
385.991	51.63
386.206	15.98
386.42	18.89
386.634	84.96
386.849	54.93
387.063	66.94
387.277	19.67
387.492	27.42
387.706	21.22
387.92	22.18
388.135	38.27
388.349	70.81
388.563	34.39
388.778	49.5
388.992	76.05
389.206	76.43
389.42	114.99
389.635	53.38
389.849	66.94
390.063	71.01
390.277	57.64
390.491	97.55
390.706	74.3
390.92	91.93
391.134	55.9
391.348	83.6
391.562	11.33
391.776	57.25
391.99	25.67
392.205	109.56
392.419	45.24
392.633	62.87
392.847	87.86
393.061	20.05
393.275	104.72
393.489	53.76
393.703	50.08
393.917	69.85
394.131	28.19
394.345	64.03
394.559	83.02
394.773	22.18
394.986	58.03
395.2	67.33
395.414	65.2
395.628	33.81
395.842	81.86
396.056	63.06
396.27	15.02
396.484	56.28
396.697	76.43
396.911	102.4
397.125	73.14
397.339	87.86
397.553	55.31
397.766	132.81
397.98	100.65
398.194	118.09
398.408	54.35
398.621	97.94
398.835	106.46
399.049	67.71
399.262	128.55
399.476	98.13
399.69	78.37
399.903	121.38
400.117	62.68
400.331	99.68
400.544	54.73
400.758	187.64
400.971	76.82
401.185	104.14
401.398	59.38
401.612	137.66
401.826	80.31
402.039	114.02
402.253	96.97
402.466	96.78
402.68	80.5
402.893	58.03
403.106	77.6
403.32	71.98
403.533	125.45
403.747	84.18
403.96	112.28
404.174	100.85
404.387	54.35
404.6	94.65
404.814	111.31
405.027	106.08
405.24	89.03
405.454	93.1
405.667	117.31
405.88	24.51
406.094	103.36
406.307	142.5
406.52	108.6
406.733	83.6
406.947	59.58
407.16	143.47
407.373	122.16
407.586	83.41
407.799	65.2
408.012	122.74
408.226	110.73
408.439	143.66
408.652	67.71
408.865	120.61
409.078	120.8
409.291	119.45
409.504	77.4
409.717	116.35
409.93	105.5
410.143	114.99
410.357	79.73
410.57	63.65
410.783	94.65
410.996	98.33
411.209	114.21
411.421	114.21
411.634	100.65
411.847	62.68
412.06	110.92
412.273	99.68
412.486	91.74
412.699	160.52
412.912	89.61
413.125	139.98
413.338	111.11
413.55	124.1
413.763	115.38
413.976	110.53
414.189	79.92
414.402	78.76
414.615	143.28
414.827	81.66
415.04	131.07
415.253	116.54
415.466	131.84
415.678	170.79
415.891	98.91
416.104	105.5
416.316	110.34
416.529	85.93
416.742	119.06
416.954	147.34
417.167	97.55
417.38	90.19
417.592	135.14
417.805	93.87
418.017	62.48
418.23	121.96
418.442	101.23
418.655	101.23
418.868	108.4
419.08	141.14
419.293	159.74
419.505	83.8
419.718	112.28
419.93	143.28
420.142	120.22
420.355	164.01
420.567	149.28
420.78	126.61
420.992	122.74
421.205	143.08
421.417	62.29
421.629	84.18
421.842	75.46
422.054	52.8
422.266	158.58
422.479	128.75
422.691	91.55
422.903	155.29
423.115	95.61
423.328	99.88
423.54	127.78
423.752	96.78
423.964	78.18
424.177	98.91
424.389	100.46
424.601	206.63
424.813	108.79
425.025	124.87
425.238	127.2
425.45	113.25
425.662	106.66
425.874	318.04
426.086	112.28
426.298	141.92
426.51	120.61
426.722	109.76
426.934	121.96
427.146	141.92
427.358	96.78
427.57	158.97
427.782	119.06
427.994	116.35
428.206	101.04
428.418	58.03
428.63	125.06
428.842	126.81
429.054	112.86
429.266	139.21
429.478	129.13
429.69	106.08
429.902	76.63
430.114	129.13
430.325	130.88
430.537	101.62
430.749	129.13
430.961	72.36
431.173	122.16
431.384	144.63
431.596	31.87
431.808	91.35
432.02	124.1
432.231	127.97
432.443	142.89
432.655	111.7
432.867	101.23
433.078	130.3
433.29	173.69
433.502	170.59
433.713	143.08
433.925	115.96
434.136	164.2
434.348	89.61
434.56	81.08
434.771	226.2
434.983	102.2
435.194	107.05
435.406	112.28
435.617	181.25
435.829	167.3
436.04	130.88
436.252	154.71
436.463	165.56
436.675	155.68
436.886	142.89
437.098	139.01
437.309	180.48
437.521	128.16
437.732	149.28
437.943	146.38
438.155	127.39
438.366	100.65
438.578	181.64
438.789	151.22
439	159.94
439.211	118.09
439.423	144.44
439.634	145.79
439.845	137.85
440.057	138.63
440.268	178.54
440.479	116.35
440.69	153.35
440.902	136.11
441.113	132.62
441.324	124.29
441.535	148.12
441.746	194.62
441.957	122.35
442.168	120.41
442.38	164.78
442.591	184.35
442.802	103.36
443.013	155.09
443.224	163.43
443.435	148.51
443.646	112.28
443.857	139.79
444.068	125.65
444.279	119.45
444.49	198.3
444.701	117.31
444.912	251.19
445.123	191.52
445.334	164.59
445.545	167.11
445.756	139.79
445.967	125.06
446.178	154.9
446.388	185.51
446.599	164.98
446.81	185.71
447.021	147.93
447.232	189.78
447.443	205.28
447.653	114.6
447.864	173.5
448.075	164.01
448.286	162.07
448.496	159.55
448.707	180.09
448.918	138.82
449.129	227.75
449.339	128.75
449.55	164.2
449.761	130.3
449.971	216.13
450.182	140.95
450.393	167.49
450.603	128.55
450.814	139.59
451.024	177.76
451.235	180.09
451.446	198.11
451.656	217.68
451.867	137.85
452.077	176.79
452.288	199.85
452.498	192.1
452.709	179.12
452.919	179.12
453.13	146.76
453.34	205.86
453.55	127
453.761	165.36
453.971	182.22
454.182	205.47
454.392	177.57
454.602	226.39
454.813	185.9
455.023	207.99
455.233	153.35
455.444	155.48
455.654	136.88
455.864	146.76
456.075	171.95
456.285	155.68
456.495	155.68
456.705	176.6
456.916	189.78
457.126	192.88
457.336	178.93
457.546	111.7
457.756	151.03
457.967	189.78
458.177	155.09
458.387	160.33
458.597	155.68
458.807	155.87
459.017	190.36
459.227	154.13
459.437	154.32
459.647	193.46
459.857	196.17
460.068	141.53
460.278	201.98
460.488	205.66
460.698	245.77
460.908	162.46
461.117	123.9
461.327	149.48
461.537	185.51
461.747	163.43
461.957	186.29
462.167	265.92
462.377	215.74
462.587	173.89
462.797	206.05
463.007	168.08
463.216	205.66
463.426	194.43
463.636	208.57
463.846	135.91
464.056	168.46
464.265	208.76
464.475	160.52
464.685	183.96
464.895	245.57
465.104	182.61
465.314	226.97
465.524	189.78
465.733	155.68
465.943	253.52
466.153	220.58
466.362	194.04
466.572	185.51
466.782	171.76
466.991	176.99
467.201	221.94
467.41	145.79
467.62	191.71
467.829	194.43
468.039	178.93
468.249	203.53
468.458	179.7
468.668	196.75
468.877	196.17
469.086	248.09
469.296	219.22
469.505	156.45
469.715	244.41
469.924	219.61
470.134	232.79
470.343	251.58
470.552	237.24
470.762	184.54
470.971	177.38
471.18	194.62
471.39	192.1
471.599	190.16
471.808	208.76
472.018	143.66
472.227	241.7
472.436	246.35
472.645	184.54
472.855	188.42
473.064	209.93
473.273	219.22
473.482	221.55
473.691	220.19
473.901	233.56
474.11	218.26
474.319	305.83
474.528	222.71
474.737	235.11
474.946	238.41
475.155	226.78
475.364	218.26
475.573	220.97
475.783	201.4
475.992	203.53
476.201	253.32
476.41	221.74
476.619	178.93
476.828	211.48
477.037	200.63
477.245	184.54
477.454	274.83
477.663	188.61
477.872	188.03
478.081	256.23
478.29	163.62
478.499	270.76
478.708	220.97
478.917	277.35
479.125	238.99
479.334	257.39
479.543	214.58
479.752	227.56
479.961	228.33
480.169	263.4
480.378	206.24
480.587	335.47
480.796	246.54
481.004	229.88
481.213	223.68
481.422	239.76
481.63	211.28
481.839	267.08
482.048	276.38
482.256	227.36
482.465	246.74
482.674	247.12
482.882	256.23
483.091	288.78
483.299	255.26
483.508	256.23
483.716	259.91
483.925	240.92
484.134	264.95
484.342	207.79
484.551	277.74
484.759	273.09
484.967	262.24
485.176	275.22
485.384	295.76
485.593	300.6
485.801	260.11
486.01	272.12
486.218	271.92
486.426	225.81
486.635	250.42
486.843	236.86
487.051	267.47
487.26	238.79
487.468	274.83
487.676	256.62
487.885	251
488.093	256.42
488.301	252.74
488.509	271.92
488.717	285.68
488.926	273.28
489.134	261.85
489.342	254.1
489.55	239.57
489.758	263.21
489.967	225.62
490.175	340.12
490.383	260.3
490.591	304.86
490.799	220.39
491.007	288.01
491.215	282.77
491.423	255.07
491.631	275.61
491.839	260.69
492.047	313.77
492.255	244.41
492.463	224.46
492.671	257.78
492.879	326.17
493.087	283.94
493.295	269.79
493.503	304.86
493.711	291.3
493.919	309.32
494.127	321.14
494.334	319.78
494.542	258.56
494.75	270.18
494.958	291.88
495.166	305.44
495.374	324.62
495.581	262.43
495.789	304.09
495.997	318.23
496.205	300.21
496.412	281.22
496.62	278.71
496.828	306.6
497.035	295.76
497.243	309.32
497.451	254.49
497.658	305.83
497.866	275.41
498.074	337.02
498.281	288.59
498.489	327.34
498.696	304.09
498.904	286.07
499.112	283.16
499.319	362.02
499.527	295.17
499.734	356.79
499.942	255.07
500.149	285.49
500.357	301.18
500.564	280.64
500.771	327.14
500.979	284.32
501.186	269.6
501.394	304.28
501.601	320.55
501.808	336.64
502.016	310.09
502.223	342.06
502.43	350
502.638	294.79
502.845	276.38
503.052	357.95
503.26	307.57
503.467	388.37
503.674	299.82
503.881	319.39
504.089	391.85
504.296	340.51
504.503	302.15
504.71	323.07
504.917	278.71
505.125	330.05
505.332	330.24
505.539	350.78
505.746	367.44
505.953	368.02
506.16	319.78
506.367	388.56
506.574	388.17
506.781	367.44
506.988	327.92
507.195	330.63
507.402	337.99
507.609	378.68
507.816	345.16
508.023	309.51
508.23	324.24
508.437	307.77
508.644	345.55
508.851	390.11
509.058	355.82
509.265	360.08
509.472	338.77
509.679	437.77
509.885	329.85
510.092	314.55
510.299	348.84
510.506	367.05
510.713	360.27
510.92	324.43
511.126	375.39
511.333	403.28
511.54	376.35
511.746	384.88
511.953	396.7
512.16	376.55
512.367	353.88
512.573	356.59
512.78	396.89
512.987	365.5
513.193	403.28
513.4	305.25
513.606	388.17
513.813	392.24
514.02	400.77
514.226	466.25
514.433	431.57
514.639	401.54
514.846	357.37
515.052	352.14
515.259	380.42
515.465	364.54
515.672	408.52
515.878	452.5
516.085	366.86
516.291	418.59
516.497	357.56
516.704	369.77
516.91	362.6
517.117	325.2
517.323	334.12
517.529	345.55
517.736	386.82
517.942	396.89
518.148	382.94
518.354	381.39
518.561	390.69
518.767	394.18
518.973	433.32
519.179	425.37
519.386	387.4
519.592	370.35
519.798	377.52
520.004	438.74
520.21	395.73
520.417	416.07
520.623	417.23
520.829	459.08
521.035	438.16
521.241	413.55
521.447	450.75
521.653	541.43
521.859	430.41
522.065	442.42
522.271	540.46
522.477	478.46
522.683	475.17
522.889	454.43
523.095	496.67
523.301	468.38
523.507	432.35
523.713	489.5
523.919	442.23
524.125	494.93
524.331	433.7
524.537	526.31
524.742	493.76
524.948	496.86
525.154	517.01
525.36	573.98
525.566	515.66
525.772	537.16
525.977	490.66
526.183	518.56
526.389	567
526.595	503.84
526.8	498.41
527.006	472.65
527.212	486.4
527.417	449.4
527.623	437.77
527.829	514.69
528.034	509.07
528.24	491.44
528.446	457.34
528.651	522.05
528.857	536.58
529.062	551.31
529.268	530
529.473	503.65
529.679	486.98
529.884	585.02
530.09	559.64
530.295	598.58
530.501	587.73
530.706	554.21
530.912	507.52
531.117	539.3
531.323	547.43
531.528	553.83
531.733	558.67
531.939	523.6
532.144	571.84
532.35	562.93
532.555	614.08
532.76	594.13
532.966	561.38
533.171	576.3
533.376	573.2
533.581	538.33
533.787	582.89
533.992	590.06
534.197	626.48
534.402	553.25
534.607	575.91
534.813	653.61
535.018	583.47
535.223	585.02
535.428	591.99
535.633	617.18
535.838	603.04
536.043	591.03
536.249	650.12
536.454	587.54
536.659	608.85
536.864	554.41
537.069	596.06
537.274	608.08
537.479	635.01
537.684	616.99
537.889	606.33
538.094	651.48
538.299	606.72
538.504	633.26
538.708	612.73
538.913	647.6
539.118	623.96
539.323	631.52
539.528	621.44
539.733	631.33
539.938	658.64
540.142	646.24
540.347	613.11
540.552	582.11
540.757	631.52
540.962	624.16
541.166	586.57
541.371	594.71
541.576	626.87
541.781	534.26
541.985	628.81
542.19	616.79
542.395	673.17
542.599	668.14
542.804	672.4
543.008	696.04
543.213	645.08
543.418	587.54
543.622	653.22
543.827	619.31
544.031	678.99
544.236	691.19
544.44	622.99
544.645	680.34
544.849	622.22
545.054	675.5
545.258	713.67
545.463	712.31
545.667	641.79
545.872	659.42
546.076	708.63
546.281	651.28
546.485	612.92
546.689	677.63
546.894	681.7
547.098	684.02
547.302	621.64
547.507	652.83
547.711	653.8
547.915	705.92
548.119	629
548.324	646.83
548.528	719.87
548.732	673.76
548.936	685.57
549.141	697.97
549.345	641.59
549.549	655.74
549.753	654.38
549.957	724.32
550.161	720.64
550.366	682.67
550.57	681.7
550.774	650.31
550.978	667.94
551.182	689.64
551.386	644.89
551.59	672.01
551.794	683.25
551.998	692.55
552.202	644.31
552.406	624.74
552.61	688.67
552.814	669.49
553.018	736.92
553.222	649.15
553.426	659.03
553.63	733.24
553.833	679.96
554.037	613.31
554.241	711.92
554.445	677.44
554.649	681.7
554.853	664.84
555.056	704.76
555.26	717.74
555.464	692.74
555.668	660
555.871	712.89
556.075	746.41
556.279	666.59
556.483	631.91
556.686	693.71
556.89	664.07
557.094	707.08
557.297	625.71
557.501	732.07
557.704	641.59
557.908	721.81
558.112	641.01
558.315	711.54
558.519	667.17
558.722	700.11
558.926	653.8
559.129	631.33
559.333	583.28
559.536	633.65
559.74	635.39
559.943	642.76
560.147	599.16
560.35	650.7
560.553	592.96
560.757	572.62
560.96	678.79
561.164	647.02
561.367	677.44
561.57	626.09
561.774	692.16
561.977	653.8
562.18	610.98
562.384	678.41
562.587	648.18
562.79	652.64
562.993	603.62
563.197	687.12
563.4	698.17
563.603	687.12
563.806	723.16
564.009	642.76
564.212	656.51
564.416	578.63
564.619	638.11
564.822	584.44
565.025	657.29
565.228	585.99
565.431	634.43
565.634	525.15
565.837	596.06
566.04	598.97
566.243	578.24
566.446	532.32
566.649	626.48
566.852	543.36
567.055	582.5
567.258	606.53
567.461	662.91
567.664	631.33
567.867	546.08
568.07	609.63
568.273	555.96
568.475	634.23
568.678	578.82
568.881	566.81
569.084	582.31
569.287	543.95
569.489	538.13
569.692	631.33
569.895	576.88
570.098	512.95
570.3	537.75
570.503	470.13
570.706	534.26
570.909	521.28
571.111	494.73
571.314	517.6
571.516	527.09
571.719	540.65
571.922	510.43
572.124	525.73
572.327	508.3
572.529	484.85
572.732	479.43
572.935	536.78
573.137	569.33
573.34	534.65
573.542	543.17
573.745	543.95
573.947	543.17
574.15	520.11
574.352	474.58
574.554	564.1
574.757	480.2
574.959	527.86
575.162	455.98
575.364	512.75
575.566	576.69
575.769	471.48
575.971	492.02
576.173	456.95
576.376	482.14
576.578	526.7
576.78	572.81
576.982	461.8
577.185	498.8
577.387	457.73
577.589	453.27
577.791	494.93
577.993	480.59
578.196	484.85
578.398	498.61
578.6	522.83
578.802	454.43
579.004	432.73
579.206	452.11
579.408	497.25
579.61	448.62
579.812	504.81
580.014	480.01
580.216	470.71
580.418	440.68
580.62	434.28
580.822	425.57
581.024	475.94
581.226	482.72
581.428	472.45
581.63	523.8
581.832	459.86
582.034	511.01
582.236	452.11
582.438	464.51
582.64	523.21
582.841	530.96
583.043	559.45
583.245	482.91
583.447	528.45
583.649	482.14
583.85	477.49
584.052	500.55
584.254	451.72
584.456	494.93
584.657	447.46
584.859	473.23
585.061	490.47
585.262	456.18
585.464	436.61
585.666	495.51
585.867	462.57
586.069	509.26
586.27	511.78
586.472	467.03
586.674	449.78
586.875	436.22
587.077	454.63
587.278	470.13
587.48	474.58
587.681	544.72
587.883	471.29
588.084	432.15
588.285	439.71
588.487	448.62
588.688	455.02
588.89	425.37
589.091	407.55
589.292	439.13
589.494	422.08
589.695	432.54
589.896	361.24
590.098	354.46
590.299	432.54
590.5	357.75
590.702	406.38
590.903	423.63
591.104	479.43
591.305	412.58
591.507	480.78
591.708	440.68
591.909	445.91
592.11	510.81
592.311	467.61
592.512	436.8
592.714	388.95
592.915	378.68
593.116	406
593.317	408.32
593.518	391.27
593.719	412.2
593.92	468.58
594.121	484.46
594.322	427.7
594.523	434.09
594.724	426.15
594.925	401.35
595.126	442.03
595.327	465.67
595.528	435.83
595.729	447.85
595.929	423.24
596.13	420.72
596.331	427.31
596.532	417.82
596.733	489.11
596.934	456.57
597.135	434.48
597.335	434.48
597.536	398.83
597.737	428.47
597.938	375.58
598.138	450.17
598.339	425.57
598.54	442.23
598.74	405.22
598.941	444.36
599.142	472.84
599.342	422.27
599.543	417.43
599.744	442.81
599.944	406
600.145	394.76
600.345	440.29
600.546	493.18
600.746	466.45
600.947	500.55
601.147	448.04
601.348	490.28
601.548	406
601.749	421.88
601.949	407.93
602.15	420.14
602.35	430.02
602.551	462.38
602.751	394.57
602.951	403.67
603.152	343.61
603.352	421.69
603.552	430.02
603.753	433.9
603.953	436.8
604.153	435.64
604.354	417.62
604.554	409.68
604.754	407.74
604.954	387.79
605.155	430.41
605.355	411.62
605.555	451.14
605.755	454.24
605.955	411.81
606.155	448.04
606.356	435.64
606.556	424.02
606.756	454.82
606.956	381.39
607.156	472.65
607.356	395.53
607.556	444.17
607.756	422.27
607.956	466.06
608.156	461.8
608.356	379.65
608.556	437.19
608.756	435.06
608.956	382.75
609.156	427.7
609.356	378.49
609.556	395.73
609.755	422.27
609.955	403.87
610.155	439.52
610.355	438.35
610.555	396.31
610.755	413.75
610.954	350
611.154	405.8
611.354	465.67
611.554	401.93
611.753	392.82
611.953	366.47
612.153	416.46
612.352	437.77
612.552	353.88
612.752	321.52
612.951	425.95
613.151	418.4
613.351	354.07
613.55	396.89
613.75	408.32
613.949	409.29
614.149	390.89
614.348	366.67
614.548	372.29
614.747	342.25
614.947	380.23
615.146	330.63
615.346	390.11
615.545	387.2
615.745	374.22
615.944	420.33
616.144	417.82
616.343	414.52
616.542	367.44
616.742	411.42
616.941	368.99
617.14	338.19
617.34	375.58
617.539	405.42
617.738	328.11
617.938	438.55
618.137	373.84
618.336	349.62
618.535	381
618.734	373.64
618.934	364.73
619.133	394.18
619.332	377.32
619.531	329.08
619.73	355.04
619.929	394.76
620.128	394.18
620.328	425.37
620.527	359.11
620.726	357.56
620.925	387.98
621.124	351.17
621.323	379.07
621.522	356.59
621.721	336.44
621.92	355.24
622.119	409.1
622.318	375.97
622.517	356.2
622.715	351.55
622.914	306.99
623.113	348.45
623.312	324.62
623.511	388.95
623.71	334.12
623.909	356.4
624.107	382.36
624.306	298.66
624.505	309.9
624.704	343.42
624.902	344.39
625.101	394.95
625.3	353.88
625.499	326.75
625.697	310.87
625.896	353.69
626.095	355.62
626.293	322.88
626.492	300.41
626.69	346.32
626.889	300.79
627.088	408.9
627.286	323.46
627.485	352.52
627.683	293.43
627.882	364.34
628.08	285.87
628.279	331.21
628.477	389.34
628.676	303.51
628.874	368.41
629.073	332.57
629.271	285.49
629.469	380.23
629.668	318.42
629.866	333.34
630.065	326.95
630.263	367.44
630.461	295.37
630.66	332.37
630.858	336.44
631.056	373.84
631.254	354.07
631.453	310.29
631.651	334.7
631.849	339.15
632.047	320.36
632.245	331.02
632.444	317.26
632.642	349.62
632.84	332.95
633.038	324.82
633.236	332.37
633.434	307.77
633.632	284.52
633.83	341.87
634.028	331.79
634.227	349.23
634.425	396.5
634.623	315.52
634.821	306.41
635.019	337.02
635.216	292.07
635.414	368.6
635.612	333.15
635.81	320.94
636.008	380.42
636.206	328.69
636.404	371.51
636.602	286.84
636.8	318.23
636.997	326.37
637.195	335.86
637.393	333.73
637.591	386.04
637.789	360.27
637.986	304.47
638.184	329.85
638.382	368.02
638.58	371.12
638.777	374.22
638.975	310.67
639.173	320.55
639.37	365.5
639.568	336.05
639.765	352.33
639.963	309.12
640.161	371.7
640.358	342.25
640.556	306.22
640.753	296.14
640.951	312.03
641.148	330.82
641.346	320.55
641.543	326.75
641.741	328.89
641.938	298.66
642.136	337.02
642.333	308.93
642.531	343.22
642.728	361.82
642.925	323.07
643.123	325.98
643.32	330.05
643.517	309.32
643.715	360.08
643.912	303.51
644.109	325.01
644.306	319.39
644.504	282.39
644.701	330.44
644.898	344.19
645.095	331.21
645.293	317.65
645.49	346.13
645.687	364.92
645.884	361.44
646.081	286.65
646.278	316.68
646.475	327.92
646.672	302.34
646.87	351.36
647.067	329.66
647.264	334.89
647.461	286.07
647.658	282
647.855	331.4
648.052	298.27
648.249	232.21
648.446	316.68
648.642	276.57
648.839	293.82
649.036	300.99
649.233	277.35
649.43	288.2
649.627	270.76
649.824	297.11
650.021	280.84
650.217	269.21
650.414	293.04
650.611	306.99
650.808	326.37
651.004	301.96
651.201	319
651.398	329.08
651.595	291.3
651.791	285.29
651.988	316.87
652.185	257.59
652.381	295.76
652.578	254.29
652.775	297.89
652.971	265.34
653.168	284.32
653.364	305.83
653.561	238.6
653.757	289.17
653.954	303.7
654.15	271.54
654.347	342.06
654.543	266.89
654.74	243.44
654.936	266.69
655.133	293.43
655.329	289.75
655.525	275.41
655.722	314.55
655.918	284.52
656.115	300.21
656.311	237.24
656.507	213.8
656.704	230.85
656.9	277.93
657.096	243.25
657.292	243.83
657.489	302.34
657.685	272.51
657.881	254.1
658.077	271.73
658.273	259.72
658.47	314.55
658.666	259.72
658.862	295.17
659.058	267.86
659.254	315.9
659.45	244.22
659.646	269.79
659.842	279.48
660.038	302.73
660.234	256.62
660.43	283.55
660.626	326.37
660.822	297.31
661.018	309.12
661.214	264.56
661.41	221.16
661.606	317.45
661.802	321.14
661.998	273.28
662.194	244.61
662.39	282
662.586	301.37
662.781	280.84
662.977	292.46
663.173	302.73
663.369	282.58
663.564	261.46
663.76	325.2
663.956	272.7
664.152	323.07
664.347	219.22
664.543	263.01
664.739	265.14
664.934	269.99
665.13	210.31
665.326	308.74
665.521	288.39
665.717	234.14
665.912	218.64
666.108	210.7
666.304	269.02
666.499	267.27
666.695	209.54
666.89	247.32
667.086	280.64
667.281	255.26
667.477	317.45
667.672	291.11
667.867	278.51
668.063	283.94
668.258	222.91
668.454	266.11
668.649	344.97
668.844	271.92
669.04	297.69
669.235	260.69
669.43	235.5
669.626	226.01
669.821	259.33
670.016	236.86
670.211	242.28
670.407	231.82
670.602	252.94
670.797	272.51
670.992	295.17
671.187	228.14
671.382	296.14
671.578	257.97
671.773	275.02
671.968	235.11
672.163	256.81
672.358	267.47
672.553	233.17
672.748	246.35
672.943	312.42
673.138	269.02
673.333	264.37
673.528	223.68
673.723	258.36
673.918	267.27
674.113	216.71
674.308	361.24
674.503	280.45
674.698	295.56
674.892	299.63
675.087	285.87
675.282	243.83
675.477	232.01
675.672	257.2
675.867	282.77
676.061	223.1
676.256	253.13
676.451	248.67
676.646	249.64
676.84	220.39
677.035	227.75
677.23	183.58
677.424	255.07
677.619	281.03
677.814	288.2
678.008	288.01
678.203	208.96
678.397	228.91
678.592	261.66
678.787	306.8
678.981	250.03
679.176	238.99
679.37	264.17
679.565	220.97
679.759	260.11
679.954	250.22
680.148	319.78
680.342	311.06
680.537	276.38
680.731	232.01
680.926	268.63
681.12	294.98
681.314	240.15
681.509	241.51
681.703	238.41
681.897	276.38
682.092	240.92
682.286	229.3
682.48	337.41
682.674	284.71
682.869	268.05
683.063	239.57
683.257	330.63
683.451	219.42
683.645	247.9
683.839	276.57
684.034	231.82
684.228	264.56
684.422	233.56
684.616	224.84
684.81	260.11
685.004	277.16
685.198	239.18
685.392	280.84
685.586	229.3
685.78	270.76
685.974	295.56
686.168	257.01
686.362	314.35
686.556	225.23
686.75	243.83
686.944	240.92
687.138	283.16
687.331	215.54
687.525	257.01
687.719	208.57
687.913	244.61
688.107	241.51
688.301	208.38
688.494	262.62
688.688	229.3
688.882	208.38
689.076	199.66
689.269	232.59
689.463	295.95
689.657	243.44
689.85	233.76
690.044	222.52
690.238	230.46
690.431	250.42
690.625	228.33
690.818	213.61
691.012	249.84
691.205	267.47
691.399	220.97
691.593	240.92
691.786	324.04
691.98	275.99
692.173	299.82
692.366	276.96
692.56	285.68
692.753	312.8
692.947	242.28
693.14	313
693.333	317.45
693.527	240.34
693.72	280.06
693.914	244.8
694.107	267.66
694.3	279.87
694.493	268.24
694.687	311.45
694.88	239.76
695.073	309.32
695.266	319.78
695.46	274.25
695.653	340.9
695.846	327.34
696.039	257.59
696.232	264.95
696.425	315.71
696.618	307.38
696.812	302.15
697.005	355.04
697.198	409.29
697.391	314.74
697.584	349.81
697.777	396.31
697.97	383.52
698.163	350
698.356	363.18
698.549	418.59
698.742	393.79
698.935	353.69
699.127	379.84
699.32	331.99
699.513	377.9
699.706	400.18
699.899	404.25
700.092	360.85
700.285	419.56
700.477	342.45
700.67	390.5
700.863	411.62
701.056	480.78
701.248	438.74
701.441	457.15
701.634	428.28
701.826	510.43
702.019	402.7
702.212	468.97
702.404	409.68
702.597	432.54
702.79	437.19
702.982	444.36
703.175	469.74
703.367	485.05
703.56	470.13
703.752	549.95
703.945	519.34
704.137	513.91
704.33	538.13
704.522	566.81
704.715	491.83
704.907	536.78
705.1	573.2
705.292	548.21
705.484	525.93
705.677	591.03
705.869	564.68
706.061	610.21
706.254	646.83
706.446	588.51
706.638	597.42
706.831	633.07
707.023	623.38
707.215	695.65
707.407	637.72
707.599	668.91
707.792	670.85
707.984	679.96
708.176	721.22
708.368	673.37
708.56	706.11
708.752	677.82
708.944	701.27
709.136	733.62
709.329	683.25
709.521	823.91
709.713	753.58
709.905	785.35
710.097	787.87
710.289	757.65
710.481	767.14
710.672	758.81
710.864	788.84
711.056	825.07
711.248	845.8
711.44	834.37
711.632	836.12
711.824	846.77
712.016	884.17
712.207	875.64
712.399	916.72
712.591	969.61
712.783	903.73
712.975	937.64
713.166	865.95
713.358	910.52
713.55	959.34
713.741	968.83
713.933	971.16
714.125	954.5
714.316	936.48
714.508	998.28
714.7	1032.19
714.891	1015.14
715.083	1089.34
715.274	1040.13
715.466	1021.14
715.657	1056.41
715.849	987.05
716.04	1021.14
716.232	979.68
716.423	1051.95
716.615	1019.98
716.806	983.17
716.998	983.17
717.189	955.08
717.381	892.5
717.572	876.22
717.763	934.15
717.955	918.07
718.146	920.01
718.337	884.36
718.528	870.02
718.72	812.48
718.911	918.07
719.102	857.04
719.293	906.25
719.485	879.71
719.676	856.85
719.867	862.47
720.058	880.68
720.249	868.67
720.44	920.98
720.632	959.15
720.823	951.98
721.014	1046.14
721.205	1030.44
721.396	1051.37
721.587	1158.51
721.778	1160.06
721.969	1165.87
722.16	1213.54
722.351	1185.64
722.542	1308.28
722.733	1290.65
722.924	1236.59
723.115	1295.68
723.305	1320.29
723.496	1268.56
723.687	1205.79
723.878	1220.32
724.069	1272.05
724.26	1276.12
724.45	1236.2
724.641	1193
724.832	1239.69
725.023	1264.3
725.213	1244.54
725.404	1202.3
725.595	1267.98
725.785	1211.99
725.976	1296.65
726.167	1290.84
726.357	1292.97
726.548	1365.05
726.739	1317.19
726.929	1382.48
727.12	1384.23
727.31	1401.66
727.501	1383.06
727.691	1404.38
727.882	1392.56
728.072	1435.96
728.263	1431.7
728.453	1481.1
728.644	1495.24
728.834	1454.94
729.024	1443.32
729.215	1470.64
729.405	1487.88
729.596	1581.46
729.786	1544.65
729.976	1565.77
730.167	1598.9
730.357	1559.18
730.547	1571.58
730.737	1602.77
730.928	1636.68
731.118	1666.9
731.308	1610.14
731.498	1628.54
731.688	1736.85
731.879	1707.59
732.069	1716.31
732.259	1775.21
732.449	1781.02
732.639	1859.68
732.829	1883.9
733.019	1906.76
733.209	1947.26
733.399	1975.54
733.589	2004.02
733.779	2049.17
733.969	2029.21
734.159	2085.79
734.349	2146.62
734.539	2190.99
734.729	2176.07
734.919	2178.01
735.109	2197
735.299	2188.86
735.488	2215.21
735.678	2231.1
735.868	2194.48
736.058	2207.27
736.248	2203
736.437	2195.83
736.627	2215.79
736.817	2250.47
737.007	2281.28
737.196	2310.73
737.386	2275.27
737.576	2278.18
737.765	2351.61
737.955	2346.57
738.144	2432.4
738.334	2371.37
738.524	2328.16
738.713	2393.65
738.903	2403.92
739.092	2419.81
739.282	2423.87
739.471	2439.96
739.661	2382.22
739.85	2472.89
740.04	2497.11
740.229	2539.35
740.419	2519.59
740.608	2525.01
740.797	2522.49
740.987	2592.43
741.176	2592.05
741.365	2522.88
741.555	2477.54
741.744	2620.92
741.933	2590.88
742.123	2610.84
742.312	2670.51
742.501	2659.28
742.69	2645.13
742.88	2626.73
743.069	2713.14
743.258	2655.6
743.447	2746.08
743.636	2733.29
743.825	2705.39
744.014	2731.93
744.204	2731.16
744.393	2662.96
744.582	2805.17
744.771	2782.5
744.96	2754.79
745.149	2765.84
745.338	2761.96
745.527	2802.26
745.716	2802.46
745.905	2756.34
746.094	2829.19
746.283	2767.39
746.471	2792.58
746.66	2855.16
746.849	2800.91
747.038	2891
747.227	2775.14
747.416	2858.06
747.604	2781.73
747.793	2853.8
747.982	2847.41
748.171	2879.96
748.359	2871.82
748.548	2844.31
748.737	2857.67
748.926	2862.91
749.114	2778.63
749.303	2899.33
749.491	2843.72
749.68	2825.71
749.869	2887.71
750.057	2857.48
750.246	2823.38
750.434	2836.56
750.623	2847.02
750.811	2834.04
751	2886.16
751.188	2814.28
751.377	2839.66
751.565	2840.04
751.754	2808.85
751.942	2816.21
752.131	2907.47
752.319	2816.41
752.507	2794.32
752.696	2890.61
752.884	2918.71
753.072	2881.7
753.261	2852.06
753.449	2831.52
753.637	2841.59
753.825	2902.82
754.014	2875.11
754.202	2862.13
754.39	2887.9
754.578	2844.11
754.766	2865.42
754.955	2801.29
755.143	2915.8
755.331	2830.36
755.519	2831.13
755.707	2833.65
755.895	2827.45
756.083	2841.98
756.271	2805.36
756.459	2804.39
756.647	2876.86
756.835	2845.47
757.023	2785.6
757.211	2788.89
757.399	2812.53
757.587	2789.48
757.775	2748.98
757.963	2765.45
758.151	2802.07
758.339	2732.13
758.526	2767.58
758.714	2763.13
758.902	2684.27
759.09	2582.36
759.278	2412.83
759.465	2249.11
759.653	1938.54
759.841	1764.94
760.028	1526.44
760.216	1332.5
760.404	1217.41
760.591	1031.22
760.779	856.27
760.967	760.75
761.154	605.75
761.342	685.77
761.529	664.46
761.717	695.46
761.905	692.36
762.092	765.01
762.28	719.29
762.467	696.04
762.655	642.18
762.842	674.34
763.029	684.8
763.217	692.74
763.404	650.51
763.592	692.74
763.779	643.34
763.966	686.93
764.154	764.04
764.341	777.99
764.528	746.99
764.716	847.74
764.903	911.68
765.09	919.62
765.277	967.86
765.465	1132.94
765.652	1166.46
765.839	1257.52
766.026	1309.63
766.213	1345.87
766.4	1489.24
766.588	1617.89
766.775	1676.98
766.962	1717.28
767.149	1797.1
767.336	1942.99
767.523	1875.57
767.71	1999.18
767.897	2102.25
768.084	2194.67
768.271	2163.67
768.458	2207.27
768.645	2288.06
768.832	2275.27
769.019	2300.46
769.206	2351.03
769.392	2393.46
769.579	2532.57
769.766	2455.46
769.953	2437.44
770.14	2475.22
770.327	2463.98
770.513	2520.55
770.7	2551.75
770.887	2511.06
771.073	2516.1
771.26	2546.71
771.447	2480.84
771.634	2493.62
771.82	2600.96
772.007	2518.62
772.193	2529.66
772.38	2566.86
772.567	2538.77
772.753	2543.8
772.94	2622.08
773.126	2607.16
773.313	2602.51
773.499	2544.19
773.686	2579.07
773.872	2512.22
774.059	2534.31
774.245	2527.53
774.432	2533.34
774.618	2502.54
774.804	2569.19
774.991	2499.44
775.177	2563.76
775.363	2560.47
775.55	2525.59
775.736	2475.22
775.922	2523.27
776.109	2478.51
776.295	2500.02
776.481	2503.12
776.667	2493.43
776.853	2468.82
777.04	2526.56
777.226	2478.12
777.412	2557.56
777.598	2462.43
777.784	2475.8
777.97	2448.09
778.156	2512.61
778.342	2465.14
778.528	2428.91
778.715	2420.19
778.901	2443.64
779.087	2473.09
779.272	2398.49
779.458	2401.79
779.644	2422.32
779.83	2399.08
780.016	2488.78
780.202	2393.65
780.388	2403.14
780.574	2354.32
780.76	2397.53
780.946	2405.27
781.131	2392.88
781.317	2348.7
781.503	2369.43
781.689	2392.49
781.874	2476.77
782.06	2361.1
782.246	2378.54
782.432	2349.09
782.617	2385.13
782.803	2390.55
782.989	2301.04
783.174	2350.83
783.36	2300.07
783.545	2336.88
783.731	2320.22
783.916	2247.56
784.102	2343.66
784.288	2273.72
784.473	2274.3
784.659	2235.36
784.844	2341.53
785.029	2301.81
785.215	2272.36
785.4	2200.87
785.586	2323.9
785.771	2211.33
785.956	2271.59
786.142	2280.5
786.327	2267.13
786.512	2247.18
786.698	2224.12
786.883	2200.1
787.068	2202.42
787.254	2212.69
787.439	2164.25
787.624	2205.72
787.809	2208.23
787.994	2159.6
788.18	2215.79
788.365	2121.82
788.55	2133.84
788.735	2147.59
788.92	2171.03
789.105	2130.74
789.29	2147.2
789.475	2068.35
789.66	2102.84
789.845	2072.42
790.03	2070.48
790.215	2138.87
790.4	2096.25
790.585	2138.87
790.77	2076.68
790.955	2019.52
791.14	2089.85
791.325	2151.85
791.51	2065.44
791.695	2117.75
791.879	2072.03
792.064	2026.11
792.249	2121.05
792.434	2028.05
792.618	2045.29
792.803	2098.96
792.988	2029.6
793.173	2058.27
793.357	2061.76
793.542	2008.67
793.727	2062.54
793.911	2122.6
794.096	2031.34
794.281	2110.2
794.465	2127.05
794.65	2127.83
794.834	2098.38
795.019	2111.36
795.203	2111.17
795.388	2118.72
795.572	2152.24
795.757	2130.74
795.941	2094.31
796.126	2117.75
796.31	2067.38
796.494	2104.97
796.679	2101.87
796.863	2055.56
797.048	2141.58
797.232	2091.02
797.416	2099.74
797.601	2112.91
797.785	2150.88
797.969	2158.25
798.153	2103.42
798.338	2140.42
798.522	2135.97
798.706	2146.23
798.89	2161.15
799.074	2239.43
799.258	2206.68
799.443	2107.68
799.627	2108.84
799.811	2193.32
799.995	2118.72
800.179	2093.54
800.363	2127.83
800.547	2105.74
800.731	2143.91
800.915	2068.54
801.099	2083.27
801.283	2095.86
801.467	2132.67
801.651	2096.64
801.835	2154.57
802.019	2110.59
802.202	2164.25
802.386	2057.5
802.57	2055.37
802.754	2079
802.938	2077.45
803.121	2104.77
803.305	2133.84
803.489	2084.62
803.673	2083.85
803.856	2113.1
804.04	2075.9
804.224	2080.55
804.407	2044.71
804.591	2067.77
804.775	2098.57
804.958	2082.69
805.142	2202.03
805.326	2079.2
805.509	2104.19
805.693	2144.49
805.876	2170.84
806.06	2111.75
806.243	2144.1
806.427	2208.82
806.61	2199.52
806.794	2120.66
806.977	2125.12
807.16	2099.54
807.344	2168.52
807.527	2134.42
807.71	2146.23
807.894	2130.54
808.077	2150.3
808.26	2099.15
808.444	2056.14
808.627	2133.45
808.81	2112.72
808.993	2043.94
809.177	2025.53
809.36	2062.15
809.543	2076.68
809.726	1996.08
809.909	1953.84
810.092	1973.99
810.276	1979.22
810.459	1982.71
810.642	1957.33
810.825	1943.38
811.008	1949
811.191	1916.45
811.374	1890.29
811.557	1937.76
811.74	1969.73
811.923	1850.58
812.106	1844.76
812.289	1841.86
812.472	1859.88
812.654	1857.36
812.837	1812.21
813.02	1749.25
813.203	1763.58
813.386	1679.89
813.569	1634.94
813.751	1599.87
813.934	1651.99
814.117	1639.78
814.3	1548.91
814.482	1535.35
814.665	1489.82
814.848	1487.69
815.03	1418.52
815.213	1433.05
815.396	1422.4
815.578	1394.5
815.761	1359.43
815.943	1447.78
816.126	1348.77
816.309	1325.52
816.491	1286.77
816.674	1229.62
816.856	1304.02
817.039	1292.78
817.221	1330.56
817.403	1291.23
817.586	1325.52
817.768	1326.49
817.951	1268.56
818.133	1216.83
818.315	1271.08
818.498	1346.45
818.68	1357.68
818.862	1335.6
819.045	1353.62
819.227	1364.46
819.409	1319.13
819.591	1390.62
819.774	1366.98
819.956	1266.43
820.138	1389.85
820.32	1359.04
820.502	1423.75
820.684	1467.93
820.866	1467.93
821.048	1486.53
821.231	1506.68
821.413	1523.14
821.595	1486.14
821.777	1520.24
821.959	1501.25
822.141	1539.61
822.323	1454.17
822.505	1363.11
822.686	1315.25
822.868	1270.3
823.05	1201.72
823.232	1180.02
823.414	1118.41
823.596	1180.4
823.778	1139.33
823.96	1198.81
824.141	1172.85
824.323	1253.64
824.505	1248.41
824.687	1304.4
824.868	1332.88
825.05	1438.28
825.232	1442.93
825.413	1539.61
825.595	1460.37
825.777	1399.53
825.958	1465.6
826.14	1434.8
826.321	1496.99
826.503	1419.1
826.685	1473.93
826.866	1510.94
827.048	1473.35
827.229	1441.38
827.411	1396.82
827.592	1327.46
827.773	1352.65
827.955	1326.88
828.136	1352.45
828.318	1296.46
828.499	1324.36
828.68	1278.05
828.862	1336.95
829.043	1366.6
829.224	1316.42
829.406	1284.64
829.587	1291.81
829.768	1341.8
829.949	1340.25
830.131	1325.52
830.312	1404.38
830.493	1324.36
830.674	1363.11
830.855	1315.06
831.036	1322.81
831.218	1385.58
831.399	1403.21
831.58	1338.5
831.761	1342.18
831.942	1342.77
832.123	1322.23
832.304	1275.15
832.485	1274.57
832.666	1315.45
832.847	1364.46
833.028	1333.66
833.209	1315.83
833.389	1320.87
833.57	1264.69
833.751	1317.97
833.932	1335.4
834.113	1361.17
834.294	1321.07
834.475	1362.33
834.655	1346.06
834.836	1369.5
835.017	1351.87
835.198	1349.93
835.378	1369.89
835.559	1394.69
835.74	1353.81
835.92	1325.13
836.101	1301.88
836.281	1375.12
836.462	1406.51
836.643	1397.01
836.823	1441.19
837.004	1369.11
837.184	1418.13
837.365	1407.48
837.545	1415.81
837.726	1358.65
837.906	1435.38
838.087	1389.46
838.267	1368.92
838.448	1381.9
838.628	1374.35
838.808	1419.3
838.989	1400.7
839.169	1360.4
839.349	1418.13
839.53	1392.75
839.71	1388.68
839.89	1358.26
840.07	1448.16
840.251	1387.91
840.431	1400.7
840.611	1390.04
840.791	1332.3
840.971	1404.76
841.151	1358.26
841.332	1352.26
841.512	1426.46
841.692	1328.04
841.872	1384.81
842.052	1394.5
842.232	1417.16
842.412	1315.45
842.592	1332.88
842.772	1385.2
842.952	1388.49
843.132	1355.75
843.312	1334.05
843.492	1345.09
843.672	1394.88
843.851	1305.95
844.031	1356.91
844.211	1348
844.391	1302.08
844.571	1379.38
844.751	1357.88
844.93	1359.04
845.11	1329.78
845.29	1378.03
845.47	1377.45
845.649	1362.33
845.829	1346.45
846.009	1325.72
846.188	1371.63
846.368	1354.58
846.547	1343.35
846.727	1380.35
846.907	1311.38
847.086	1306.15
847.266	1345.28
847.445	1361.17
847.625	1317
847.804	1323.78
847.984	1293.55
848.163	1328.62
848.343	1295.68
848.522	1323.97
848.701	1317.97
848.881	1291.42
849.06	1304.21
849.239	1313.9
849.419	1328.82
849.598	1235.24
849.777	1252.48
849.957	1223.42
850.136	1168.97
850.315	1181.76
850.494	1176.14
850.674	1193.97
850.853	1249.38
851.032	1221.67
851.211	1282.7
851.39	1229.23
851.569	1190.29
851.748	1231.94
851.927	1247.44
852.107	1226.71
852.286	1174.21
852.465	1193.58
852.644	1253.25
852.823	1234.46
853.002	1206.56
853.181	1245.5
853.359	1242.79
853.538	1191.06
853.717	1255.58
853.896	1154.25
854.075	1139.52
854.254	1069.58
854.433	992.66
854.611	1037.42
854.79	1014.94
854.969	1085.08
855.148	1081.4
855.327	1055.83
855.505	1060.48
855.684	1062.03
855.863	1103.49
856.041	1071.33
856.22	1144.95
856.399	1123.64
856.577	1190.48
856.756	1124.61
856.934	1266.43
857.113	1254.61
857.291	1140.88
857.47	1144.17
857.648	1178.66
857.827	1178.47
858.005	1203.85
858.184	1136.04
858.362	1201.14
858.541	1166.46
858.719	1175.95
858.898	1155.61
859.076	1150.57
859.254	1212.95
859.433	1135.84
859.611	1128.29
859.789	1104.26
859.967	1208.11
860.146	1205.79
860.324	1115.5
860.502	1106.39
860.68	1097.09
860.859	1083.53
861.037	1124.61
861.215	1150.76
861.393	1128.87
861.571	1119.37
861.749	1097.29
861.927	1108.14
862.105	1123.64
862.283	1116.86
862.461	1095.54
862.639	1063.58
862.817	1087.02
862.995	1108.52
863.173	1113.76
863.351	1108.14
863.529	1088.57
863.707	1147.47
863.885	1112.59
864.063	1036.84
864.241	1068.61
864.418	1144.37
864.596	1073.07
864.774	1036.26
864.952	1067.06
865.129	1091.28
865.307	1030.25
865.485	1020.76
865.663	1089.93
865.84	1001
866.018	1044.2
866.196	917.3
866.373	942.48
866.551	934.93
866.728	877.97
866.906	925.43
867.084	950.23
867.261	949.46
867.439	970.77
867.616	997.31
867.794	975.42
867.971	986.66
868.149	963.41
868.326	1047.69
868.503	1028.89
868.681	1036.26
868.858	993.63
869.035	943.06
869.213	1034.32
869.39	997.9
869.567	1071.52
869.745	976.2
869.922	1022.69
870.099	1042.84
870.276	1016.69
870.454	1003.51
870.631	1033.16
870.808	986.46
870.985	1035.48
871.162	1076.56
871.339	1015.53
871.517	940.16
871.694	948.88
871.871	988.4
872.048	985.5
872.225	948.3
872.402	972.13
872.579	943.45
872.756	973.87
872.933	941.32
873.11	958.95
873.287	1000.8
873.463	970.77
873.64	962.44
873.817	969.41
873.994	982.2
874.171	951.4
874.348	968.06
874.524	929.11
874.701	950.81
874.878	895.21
875.055	940.74
875.231	944.61
875.408	959.73
875.585	902.57
875.762	899.28
875.938	895.02
876.115	886.68
876.291	879.9
876.468	911.1
876.645	870.6
876.821	894.82
876.998	890.75
877.174	940.55
877.351	897.73
877.527	877.97
877.704	920.98
877.88	903.35
878.057	892.5
878.233	940.93
878.409	903.15
878.586	877.77
878.762	895.79
878.938	862.08
879.115	831.08
879.291	896.76
879.467	825.07
879.644	867.89
879.82	874.09
879.996	847.74
880.172	799.3
880.349	831.27
880.525	896.37
880.701	825.07
880.877	828.95
881.053	888.23
881.229	834.76
881.405	903.54
881.581	830.5
881.757	868.86
881.933	879.71
882.109	870.41
882.285	812.67
882.461	802.79
882.637	854.13
882.813	815.97
882.989	832.43
883.165	886.3
883.341	851.42
883.517	882.23
883.693	821.97
883.869	872.35
884.044	831.08
884.22	859.95
884.396	882.81
884.572	880.87
884.747	889.59
884.923	827.2
885.099	863.63
885.275	893.66
885.45	838.83
885.626	842.7
885.801	854.91
885.977	851.62
886.153	767.53
886.328	833.6
886.504	837.28
886.679	839.8
886.855	817.71
887.03	842.7
887.206	890.56
887.381	876.22
887.557	860.14
887.732	841.15
887.908	873.32
888.083	898.89
888.258	827.2
888.434	837.08
888.609	842.51
888.784	892.11
888.96	827.01
889.135	805.7
889.31	785.74
889.485	820.62
889.661	840.38
889.836	888.04
890.011	841.15
890.186	829.53
890.361	825.65
890.537	845.61
890.712	827.59
890.887	826.43
891.062	829.53
891.237	888.43
891.412	812.48
891.587	828.17
891.762	860.33
891.937	882.23
892.112	808.22
892.287	840.96
892.462	772.76
892.637	775.86
892.812	771.4
892.987	777.99
893.161	788.26
893.336	771.6
893.511	758.42
893.686	757.84
893.861	756.68
894.035	760.17
894.21	769.85
894.385	708.82
894.56	752.03
894.734	674.14
894.909	725.87
895.084	705.92
895.258	715.22
895.433	682.47
895.608	664.65
895.782	640.82
895.957	651.86
896.131	674.14
896.306	587.93
896.48	613.89
896.655	606.53
896.829	549.18
897.004	562.16
897.178	556.54
897.353	557.7
897.527	608.46
897.701	563.51
897.876	523.21
898.05	601.29
898.224	616.21
898.399	609.82
898.573	587.73
898.747	481.17
898.921	538.52
899.096	467.22
899.27	433.51
899.444	453.47
899.618	480.01
899.792	496.28
899.967	510.43
900.141	512.36
900.315	471.87
900.489	492.21
900.663	478.07
900.837	506.94
901.011	442.42
901.185	569.13
901.359	490.28
901.533	518.37
901.707	517.21
901.881	498.03
902.055	470.32
902.229	483.3
902.403	541.23
902.576	490.28
902.75	524.18
902.924	612.92
903.098	526.12
903.272	599.55
903.446	587.73
903.619	571.07
903.793	602.07
903.967	610.01
904.14	658.26
904.314	647.02
904.488	619.7
904.661	641.01
904.835	634.04
905.009	680.34
905.182	702.43
905.356	645.86
905.529	647.41
905.703	594.71
905.876	595.09
906.05	559.25
906.223	575.91
906.397	495.31
906.57	506.16
906.744	490.47
906.917	490.28
907.09	513.14
907.264	471.87
907.437	505.2
907.61	432.15
907.784	479.43
907.957	481.56
908.13	443.58
908.304	504.03
908.477	453.85
908.65	441.84
908.823	437.58
908.996	506.55
909.17	430.22
909.343	425.76
909.516	480.4
909.689	437.77
909.862	398.05
910.035	470.13
910.208	389.92
910.381	417.23
910.554	524.38
910.727	451.72
910.9	454.43
911.073	434.28
911.246	491.05
911.419	496.67
911.592	475.94
911.765	444.36
911.938	408.9
912.11	447.27
912.283	477.88
912.456	501.51
912.629	474
912.802	419.95
912.974	396.7
913.147	369.38
913.32	339.54
913.493	365.89
913.665	384.88
913.838	375.58
914.01	377.52
914.183	401.93
914.356	389.34
914.528	425.18
914.701	444.75
914.873	424.4
915.046	375.19
915.218	342.84
915.391	317.84
915.563	344.97
915.736	385.27
915.908	405.22
916.081	392.24
916.253	379.65
916.425	401.35
916.598	393.79
916.77	363.18
916.942	340.51
917.115	305.06
917.287	368.22
917.459	344
917.632	312.22
917.804	302.92
917.976	365.31
918.148	349.23
918.32	361.44
918.493	415.88
918.665	418.59
918.837	410.65
919.009	422.27
919.181	415.68
919.353	418.4
919.525	401.54
919.697	378.29
919.869	415.3
920.041	443.78
920.213	497.45
920.385	442.03
920.557	419.75
920.729	425.76
920.901	448.62
921.073	413.36
921.244	397.47
921.416	464.32
921.588	396.12
921.76	383.52
921.932	461.6
922.103	419.95
922.275	403.09
922.447	398.25
922.619	322.3
922.79	405.42
922.962	375.58
923.134	412.2
923.305	388.75
923.477	336.05
923.648	344
923.82	361.44
923.991	346.9
924.163	326.95
924.335	344
924.506	331.21
924.677	368.8
924.849	317.45
925.02	366.47
925.192	386.43
925.363	399.99
925.535	354.07
925.706	317.65
925.877	394.18
926.049	324.82
926.22	348.84
926.391	352.91
926.562	395.92
926.734	348.84
926.905	376.55
927.076	303.7
927.247	331.6
927.419	248.29
927.59	313.19
927.761	297.5
927.932	308.35
928.103	296.34
928.274	276.77
928.445	261.07
928.616	242.67
928.787	271.92
928.958	286.07
929.129	256.04
929.3	253.32
929.471	213.99
929.642	165.75
929.813	148.12
929.984	229.88
930.155	153.54
930.326	194.62
930.496	163.04
930.667	142.5
930.838	191.71
931.009	135.72
931.18	165.75
931.35	141.53
931.521	132.81
931.692	86.7
931.863	75.27
932.033	135.33
932.204	133.59
932.374	97.36
932.545	68.68
932.716	131.46
932.886	122.93
933.057	67.71
933.227	63.06
933.398	154.13
933.568	40.01
933.739	30.13
933.909	66.75
934.08	107.63
934.25	33.81
934.421	29.16
934.591	76.05
934.761	23.35
934.932	10.37
935.102	83.02
935.272	38.85
935.443	68.88
935.613	24.7
935.783	63.26
935.953	16.95
936.123	190.94
936.294	41.75
936.464	31.87
936.634	39.04
936.804	38.07
936.974	10.95
937.144	57.45
937.314	43.88
937.484	60.74
937.655	25.28
937.825	93.1
937.995	49.31
938.165	103.36
938.334	51.25
938.504	48.34
938.674	41.95
938.844	84.76
939.014	96.78
939.184	99.88
939.354	149.67
939.524	126.61
939.694	95.23
939.863	101.43
940.033	158.97
940.203	131.46
940.373	114.6
940.542	137.66
940.712	110.34
940.882	104.72
941.051	123.51
941.221	118.67
941.391	147.15
941.56	105.3
941.73	59.38
941.899	167.49
942.069	99.1
942.238	124.87
942.408	78.37
942.577	109.37
942.747	79.34
942.916	46.21
943.086	69.85
943.255	112.28
943.425	82.05
943.594	65.58
943.763	13.27
943.933	36.13
944.102	37.88
944.271	65.39
944.441	121.77
944.61	56.28
944.779	81.47
944.948	194.23
945.117	37.3
945.287	71.2
945.456	36.33
945.625	79.53
945.794	87.48
945.963	58.41
946.132	103.36
946.301	63.26
946.47	107.05
946.639	20.83
946.808	55.31
946.977	91.74
947.146	135.33
947.315	26.64
947.484	88.06
947.653	59.77
947.822	60.93
947.991	38.46
948.16	125.84
948.329	117.12
948.498	74.5
948.666	87.48
948.835	89.8
949.004	48.15
949.173	32.65
949.341	65.39
949.51	82.44
949.679	135.14
949.847	91.55
950.016	124.1
950.185	118.67
950.353	78.95
950.522	67.52
950.69	139.59
950.859	73.72
951.028	127
951.196	108.21
951.365	58.41
951.533	72.17
951.701	106.85
951.87	103.56
952.038	62.68
952.207	56.09
952.375	145.21
952.543	64.81
952.712	67.71
952.88	84.96
953.048	137.08
953.217	86.51
953.385	77.21
953.553	112.08
953.721	65.58
953.89	99.68
954.058	43.5
954.226	65.78
954.394	82.83
954.562	34.2
954.73	70.23
954.898	82.05
955.067	118.28
955.235	52.41
955.403	91.55
955.571	135.72
955.739	94.26
955.907	59.19
956.075	66.75
956.243	83.8
956.41	93.29
956.578	31.87
956.746	26.06
956.914	79.15
957.082	125.45
957.25	102.01
957.418	47.95
957.585	74.3
957.753	123.9
957.921	48.92
958.089	69.85
958.256	111.89
958.424	96.58
958.592	96.78
958.759	56.86
958.927	85.93
959.095	43.11
959.262	88.25
959.43	77.79
959.597	57.83
959.765	69.26
959.932	46.01
960.1	127.78
960.267	84.38
960.435	78.95
960.602	104.33
960.77	52.41
960.937	51.05
961.104	81.86
961.272	17.34
961.439	58.22
961.606	108.21
961.774	122.55
961.941	75.08
962.108	96.78
962.275	87.28
962.443	114.99
962.61	110.53
962.777	148.51
962.944	127.39
963.111	111.89
963.278	113.05
963.446	104.14
963.613	64.61
963.78	103.17
963.947	111.5
964.114	77.01
964.281	171.37
964.448	102.01
964.615	80.5
964.782	122.35
964.949	91.93
965.116	124.48
965.282	148.31
965.449	88.83
965.616	83.8
965.783	110.53
965.95	109.95
966.117	75.85
966.283	76.82
966.45	120.41
966.617	104.91
966.784	124.48
966.95	134.56
967.117	122.74
967.284	90.96
967.45	58.22
967.617	169.63
967.784	120.8
967.95	173.11
968.117	94.65
968.283	178.54
968.45	210.89
968.616	122.74
968.783	162.46
968.949	141.73
969.116	129.33
969.282	129.33
969.449	107.82
969.615	104.33
969.781	85.35
969.948	91.35
970.114	78.56
970.28	137.46
970.447	139.79
970.613	143.47
970.779	110.73
970.945	131.84
971.112	147.54
971.278	99.1
971.444	107.63
971.61	156.26
971.776	110.15
971.942	137.85
972.108	119.83
972.275	122.55
972.441	131.46
972.607	172.14
972.773	96.39
972.939	117.51
973.105	119.06
973.271	101.62
973.437	95.03
973.602	100.07
973.768	111.31
973.934	103.56
974.1	122.35
974.266	37.68
974.432	135.91
974.598	105.5
974.763	130.3
974.929	90.96
975.095	170.59
975.261	78.76
975.426	106.66
975.592	90.19
975.758	171.95
975.923	54.54
976.089	62.87
976.255	119.64
976.42	98.13
976.586	146.38
976.751	121.96
976.917	173.31
977.082	118.86
977.248	76.24
977.413	32.45
977.579	83.21
977.744	95.03
977.91	85.93
978.075	58.61
978.24	122.55
978.406	69.65
978.571	75.08
978.736	93.68
978.902	138.63
979.067	90.77
979.232	55.12
979.397	97.75
979.563	132.62
979.728	48.53
979.893	109.56
980.058	83.02
980.223	119.06
980.388	123.9
980.554	109.56
980.719	90.58
980.884	110.73
981.049	127.2
981.214	88.25
981.379	110.15
981.544	86.7
981.709	109.76
981.874	83.6
982.039	104.91
982.204	129.52
982.368	100.85
982.533	71.59
982.698	117.51
982.863	137.27
983.028	71.78
983.193	117.31
983.357	107.24
983.522	124.1
983.687	105.3
983.852	75.85
984.016	91.74
984.181	99.68
984.346	118.67
984.51	125.45
984.675	97.75
984.839	105.69
985.004	107.05
985.168	123.71
985.333	150.83
985.498	88.83
985.662	93.68
985.827	126.61
985.991	100.07
986.155	88.64
986.32	137.08
986.484	157.23
986.649	121
986.813	51.63
986.977	111.31
987.142	142.11
987.306	58.8
987.47	80.5
987.634	90
987.799	132.23
987.963	92.71
988.127	97.94
988.291	164.2
988.455	105.5
988.62	83.8
988.784	121.19
988.948	114.02
989.112	66.94
989.276	98.52
989.44	110.92
989.604	78.56
989.768	98.33
989.932	148.31
990.096	60.93
990.26	77.98
990.424	81.08
990.588	95.81
990.752	142.69
990.915	119.45
991.079	104.33
991.243	77.6
991.407	116.73
991.571	91.16
991.734	149.67
991.898	95.42
992.062	180.48
992.226	118.28
992.389	79.34
992.553	51.44
992.717	76.05
992.88	88.06
993.044	87.48
993.207	89.41
993.371	131.46
993.535	95.42
993.698	114.02
993.862	106.27
994.025	108.6
994.189	95.23
994.352	110.73
994.515	121.19
994.679	119.64
994.842	67.33
995.006	106.85
995.169	65.39
995.332	63.84
995.496	109.18
995.659	28.77
995.822	79.34
995.985	73.33
996.149	130.88
996.312	67.33
996.475	143.47
996.638	59.19
996.801	108.21
996.964	130.49
997.128	88.45
997.291	73.72
997.454	83.21
997.617	48.73
997.78	121
997.943	70.62
998.106	127.97
998.269	44.85
998.432	91.74
998.595	95.23
998.758	66.16
998.92	52.21
999.083	50.66
999.246	69.85
999.409	72.75
999.572	23.35
999.735	59.38
999.897	81.66
1000.06	66.94
1000.223	68.88
1000.386	98.13
1000.548	93.1
1000.711	110.53
1000.874	86.7
1001.036	21.99
1001.199	115.96
1001.361	55.31
1001.524	64.81
1001.687	105.88
1001.849	53.57
1002.012	103.17
1002.174	76.43
1002.337	98.71
1002.499	77.01
1002.661	106.46
1002.824	30.32
1002.986	74.69
1003.149	57.83
1003.311	51.44
1003.473	118.86
1003.636	67.91
1003.798	101.62
1003.96	53.18
1004.123	82.25
1004.285	52.02
1004.447	62.48
1004.609	36.13
1004.771	102.2
1004.933	16.57
1005.096	45.05
1005.258	23.93
1005.42	52.41
1005.582	92.9
1005.744	81.66
1005.906	10.56
1006.068	69.85
1006.23	16.37
1006.392	-1.45
1006.554	22.38
1006.716	98.13
1006.878	98.91
1007.04	16.57
1007.202	62.29
1007.363	71.01
1007.525	69.46
1007.687	89.41
1007.849	116.54
1008.011	12.69
1008.172	15.79
1008.334	50.47
1008.496	60.16
1008.658	17.73
1008.819	22.38
1008.981	15.6
1009.143	27.61
1009.304	37.88
1009.466	85.54
1009.627	98.52
1009.789	138.82
1009.95	69.26
1010.112	41.56
1010.273	39.04
1010.435	30.13
1010.596	27.42
1010.758	30.71
1010.919	56.86
1011.081	18.7
1011.242	33.23
1011.403	86.12
1011.565	37.3
1011.726	47.56
1011.887	-7.27
1012.049	57.06
1012.21	65
1012.371	88.45
1012.532	-29.55
1012.693	56.67
1012.855	17.73
1013.016	70.62
1013.177	91.74
1013.338	38.07
1013.499	100.65
1013.66	47.56
1013.821	70.23
1013.982	62.29
1014.143	51.25
1014.304	49.31
1014.465	59.58
1014.626	57.45
1014.787	24.12
1014.948	108.98
1015.109	1.07
1015.27	84.38
1015.431	18.5
1015.592	15.4
1015.752	73.91
1015.913	31.29
1016.074	44.66
1016.235	36.91
1016.395	26.83
1016.556	37.68
1016.717	45.43
1016.877	92.32
1017.038	31.48
1017.199	54.93
1017.359	37.1
1017.52	34
1017.681	27.61
1017.841	47.18
1018.002	21.99
1018.162	24.32
1018.323	68.49
1018.483	21.41
1018.644	23.73
1018.804	-3
1018.964	19.08
1019.125	19.67
1019.285	39.43
1019.446	-7.46
1019.606	21.41
1019.766	-30.13
1019.926	78.76
1020.087	51.83
1020.247	-15.98
1020.407	37.1
1020.567	75.85
1020.728	41.17
1020.888	7.85
1021.048	10.17
1021.208	8.23
1021.368	11.92
1021.528	81.28
1021.688	62.48
1021.848	72.36
1022.008	27.22
1022.168	9.01
1022.328	29.55
1022.488	39.82
1022.648	8.62
1022.808	32.26
1022.968	45.82
1023.128	34.2
1023.288	34.2
1023.448	21.02
1023.608	69.46
1023.767	47.76
1023.927	-5.33
1024.087	-5.52
1024.247	-8.43
1024.406	31.1
1024.566	-11.92
1024.726	0.29
1024.885	46.21
1025.045	54.73
1025.205	26.25
1025.364	10.37
1025.524	48.53
1025.683	10.37
1025.843	25.67
1026.003	28.38
1026.162	96.78
1026.321	62.68
1026.481	14.43
1026.64	13.85
1026.8	13.08
1026.959	26.64
1027.119	27.42
1027.278	8.43
1027.437	16.18
1027.597	7.07
1027.756	50.66
1027.915	6.88
1028.074	35.75
1028.234	7.07
1028.393	20.83
1028.552	16.18
1028.711	-42.72
1028.87	57.83
1029.03	-9.01
1029.189	8.82
1029.348	-20.83
1029.507	17.73
1029.666	30.52
1029.825	-5.72
1029.984	-24.51
1030.143	23.93
1030.302	8.82
1030.461	-46.79
1030.62	25.48
1030.779	23.93
1030.938	21.6
1031.097	-8.04
1031.255	38.27
1031.414	46.79
1031.573	49.11
1031.732	-19.28
1031.891	-7.85
1032.049	60.93
1032.208	38.07
1032.367	10.95
1032.525	8.82
1032.684	-13.27
1032.843	21.6
1033.001	-26.06
1033.16	161.1
1033.319	74.69
1033.477	40.59
1033.636	23.54
1033.794	-44.08
1033.953	34.2
1034.111	60.74
1034.27	1.84
1034.428	59.38
1034.587	16.76
1034.745	4.17
1034.903	17.34
1035.062	27.22
1035.22	-28.58
1035.378	40.59
1035.537	-15.79
1035.695	31.29
1035.853	38.07
1036.011	60.55
1036.17	33.42
1036.328	-47.56
1036.486	2.23
1036.644	18.5
1036.802	-71.4
1036.96	13.08
1037.119	18.12
1037.277	-14.63
1037.435	-35.17
1037.593	6.1
1037.751	6.3
1037.909	39.82
1038.067	39.82
