Data from oakcork_FLMT105791__301__17-34-47-052.txt Node

Date: Mon Mar 20 17:34:47 GMT 2023
User: antho
Spectrometer: FLMT10579
Trigger mode: 0
Integration Time (sec): 1.000000E-1
Scans to average: 10
Electric dark correction enabled: true
Nonlinearity correction enabled: false
Boxcar width: 0
XAxis mode: Wavelengths
Number of Pixels in Spectrum: 3648
>>>>>Begin Spectral Data<<<<<
345.248	-163.73
345.464	-163.73
345.681	-163.73
345.898	-158.31
346.114	-136.41
346.331	-34.89
346.548	10.45
346.764	-6.6
346.981	-6.8
347.197	-0.79
347.414	29.24
347.631	-35.08
347.847	65.47
348.064	12
348.28	2.31
348.497	-31.02
348.713	-4.28
348.93	23.81
349.146	6.18
349.363	-6.22
349.579	28.66
349.796	0.37
350.012	-13.77
350.229	20.13
350.445	7.35
350.661	-13.19
350.878	20.91
351.094	4.63
351.311	12.38
351.527	2.5
351.743	-19.78
351.96	39.31
352.176	35.63
352.392	20.71
352.609	30.4
352.825	-8.93
353.041	12
353.257	-4.08
353.474	12.58
353.69	-4.67
353.906	4.44
354.122	-38.57
354.339	49.2
354.555	-13
354.771	-4.28
354.987	62.95
355.203	43.19
355.42	-0.4
355.636	-25.4
355.852	-2.15
356.068	-25.78
356.284	-9.32
356.5	59.08
356.716	29.05
356.932	-3.5
357.148	24.78
357.364	-4.47
357.58	13.35
357.796	54.23
358.012	36.21
358.228	37.96
358.444	-44
358.66	52.49
358.876	25.75
359.092	-40.12
359.308	23.81
359.524	25.17
359.74	-8.93
359.956	-15.71
360.172	3.28
360.388	26.53
360.604	-30.82
360.819	59.27
361.035	-2.73
361.251	18.39
361.467	-20.17
361.683	24.2
361.898	-4.67
362.114	29.82
362.33	39.9
362.546	45.13
362.762	5.22
362.977	12
363.193	-73.64
363.409	29.63
363.624	-21.33
363.84	3.67
364.056	-33.15
364.271	41.45
364.487	28.27
364.703	-30.82
364.918	-11.64
365.134	-12.42
365.35	10.64
365.565	44.93
365.781	12.77
365.996	29.24
366.212	45.51
366.427	44.16
366.643	6.18
366.858	-0.6
367.074	-29.08
367.289	44.16
367.505	81.36
367.72	-25.01
367.936	0.76
368.151	29.24
368.367	45.9
368.582	13.55
368.798	-2.15
369.013	42.41
369.228	-0.4
369.444	8.31
369.659	56.75
369.874	26.53
370.09	56.36
370.305	-30.82
370.52	-31.98
370.736	22.26
370.951	15.87
371.166	60.24
371.381	62.37
371.597	7.15
371.812	-32.37
372.027	-3.31
372.242	-2.34
372.458	81.75
372.673	1.34
372.888	0.76
373.103	0.18
373.318	76.51
373.533	16.06
373.749	31.95
373.964	-22.68
374.179	52.88
374.394	-15.71
374.609	29.43
374.824	-6.8
375.039	55.98
375.254	-11.83
375.469	44.35
375.684	12.77
375.899	11.41
376.114	31.37
376.329	12.77
376.544	52.88
376.759	42.22
376.974	-5.44
377.189	21.68
377.404	-8.73
377.619	49.39
377.834	-48.07
378.049	-3.7
378.264	10.83
378.478	28.85
378.693	-23.46
378.908	33.89
379.123	5.22
379.338	28.27
379.553	39.7
379.767	19.94
379.982	34.47
380.197	42.41
380.412	12.38
380.626	27.69
380.841	70.51
381.056	41.25
381.271	52.49
381.485	-12.61
381.7	-13.77
381.915	21.68
382.129	8.9
382.344	15.87
382.559	-4.08
382.773	55.2
382.988	-26.75
383.202	23.23
383.417	18
383.632	124.76
383.846	-9.51
384.061	43.77
384.275	-10.28
384.49	40.48
384.704	50.94
384.919	53.26
385.133	-16.29
385.348	50.75
385.562	-14.35
385.777	53.46
385.991	13.35
386.206	2.7
386.42	17.61
386.634	49.58
386.849	9.67
387.063	18.97
387.277	-8.93
387.492	15.48
387.706	7.93
387.92	-10.87
388.135	46.29
388.349	55.59
388.563	14.71
388.778	33.31
388.992	45.71
389.206	32.73
389.42	77.87
389.635	24.59
389.849	29.05
390.063	48.42
390.277	8.12
390.491	81.94
390.706	32.53
390.92	20.33
391.134	25.17
391.348	60.05
391.562	-31.21
391.776	10.83
391.99	0.57
392.205	53.65
392.419	-6.99
392.633	-3.31
392.847	33.7
393.061	6.77
393.275	76.9
393.489	21.68
393.703	12
393.917	44.93
394.131	16.84
394.345	61.21
394.559	54.23
394.773	23.81
394.986	43.38
395.2	8.9
395.414	50.55
395.628	11.22
395.842	39.9
396.056	-0.21
396.27	-18.81
396.484	47.84
396.697	31.37
396.911	73.41
397.125	51.33
397.339	64.89
397.553	37.96
397.766	66.63
397.98	57.91
398.194	50.94
398.408	19.75
398.621	54.23
398.835	57.33
399.049	27.69
399.262	69.15
399.476	70.31
399.69	64.5
399.903	98.99
400.117	15.68
400.331	63.34
400.544	10.64
400.758	115.65
400.971	55.78
401.185	80.2
401.398	-3.89
401.612	84.65
401.826	59.85
402.039	40.28
402.253	15.87
402.466	53.46
402.68	33.5
402.893	53.85
403.106	52.1
403.32	38.73
403.533	52.68
403.747	43
403.96	60.43
404.174	45.71
404.387	38.93
404.6	46.29
404.814	68.76
405.027	45.9
405.24	49.39
405.454	21.1
405.667	62.37
405.88	-7.38
406.094	34.47
406.307	68.96
406.52	44.16
406.733	11.03
406.947	-0.4
407.16	115.07
407.373	109.64
407.586	32.34
407.799	12.77
408.012	66.63
408.226	42.41
408.439	104.61
408.652	-4.47
408.865	40.48
409.078	66.25
409.291	70.9
409.504	20.13
409.717	77.29
409.93	88.53
410.143	16.45
410.357	3.08
410.57	40.67
410.783	25.17
410.996	63.73
411.209	60.63
411.421	59.27
411.634	54.81
411.847	46.68
412.06	51.91
412.273	64.31
412.486	49.78
412.699	141.23
412.912	57.53
413.125	59.85
413.338	48.03
413.55	74.19
413.763	55.2
413.976	75.93
414.189	3.08
414.402	27.11
414.615	118.17
414.827	46.87
415.04	84.07
415.253	70.9
415.466	60.82
415.678	104.99
415.891	44.16
416.104	34.66
416.316	48.23
416.529	30.79
416.742	66.05
416.954	87.17
417.167	47.06
417.38	41.83
417.592	86.4
417.805	27.3
418.017	-3.5
418.23	68.38
418.442	15.29
418.655	40.86
418.868	62.76
419.08	92.21
419.293	75.35
419.505	80.78
419.718	45.51
419.93	100.15
420.142	42.03
420.355	91.63
420.567	118.75
420.78	54.23
420.992	61.6
421.205	101.51
421.417	28.08
421.629	58.88
421.842	27.3
422.054	31.76
422.266	67.6
422.479	102.48
422.691	28.08
422.903	86.4
423.115	28.85
423.328	66.25
423.54	56.95
423.752	70.12
423.964	22.26
424.177	43
424.389	46.87
424.601	166.8
424.813	36.21
425.025	101.7
425.238	74.58
425.45	37.57
425.662	44.16
425.874	319.67
426.086	42.22
426.298	86.98
426.51	95.31
426.722	72.83
426.934	47.65
427.146	100.54
427.358	33.31
427.57	63.15
427.782	82.33
427.994	63.15
428.206	38.54
428.418	23.62
428.63	86.4
428.842	64.89
429.054	65.66
429.266	96.28
429.478	25.56
429.69	59.66
429.902	38.15
430.114	80.97
430.325	72.45
430.537	41.83
430.749	64.89
430.961	18.58
431.173	50.55
431.384	73.41
431.596	-11.25
431.808	40.67
432.02	67.6
432.231	86.59
432.443	80.39
432.655	62.95
432.867	25.95
433.078	59.66
433.29	127.66
433.502	86.59
433.713	113.52
433.925	69.35
434.136	102.28
434.348	32.53
434.56	14.9
434.771	140.06
434.983	30.01
435.194	33.7
435.406	69.73
435.617	98.99
435.829	129.79
436.04	99.76
436.252	87.36
436.463	129.79
436.675	104.8
436.886	110.42
437.098	80.97
437.309	125.34
437.521	73.61
437.732	75.93
437.943	65.66
438.155	74.77
438.366	30.01
438.578	128.24
438.789	96.86
439	104.41
439.211	72.45
439.423	94.53
439.634	97.24
439.845	113.13
440.057	105.38
440.268	118.36
440.479	49.78
440.69	99.57
440.902	66.44
441.113	78.06
441.324	80.39
441.535	100.34
441.746	126.5
441.957	33.89
442.168	53.26
442.38	115.65
442.591	105.96
442.802	63.34
443.013	59.27
443.224	68.96
443.435	76.51
443.646	66.44
443.857	69.93
444.068	78.45
444.279	57.33
444.49	143.94
444.701	87.36
444.912	158.47
445.123	94.53
445.334	83.88
445.545	112.16
445.756	82.71
445.967	57.33
446.178	130.96
446.388	143.16
446.599	122.63
446.81	121.66
447.021	102.86
447.232	105.96
447.443	136.19
447.653	67.8
447.864	120.88
448.075	101.31
448.286	127.86
448.496	81.75
448.707	136.58
448.918	93.37
449.129	195.47
449.339	91.24
449.55	99.76
449.761	94.92
449.971	142.78
450.182	87.56
450.393	127.08
450.603	110.42
450.814	130.57
451.024	118.36
451.235	115.84
451.446	163.31
451.656	148.59
451.867	86.98
452.077	134.06
452.288	152.27
452.498	153.04
452.709	103.25
452.919	120.3
453.13	88.91
453.34	144.71
453.55	71.48
453.761	133.28
453.971	110.23
454.182	127.08
454.392	141.03
454.602	141.23
454.813	116.62
455.023	138.9
455.233	92.6
455.444	100.93
455.654	79.03
455.864	106.35
456.075	115.84
456.285	88.53
456.495	102.67
456.705	122.82
456.916	154.59
457.126	152.66
457.336	137.16
457.546	63.15
457.756	91.82
457.967	161.38
458.177	103.25
458.387	113.13
458.597	74.58
458.807	112.74
459.017	127.28
459.227	97.44
459.437	100.93
459.647	142.19
459.857	120.49
460.068	89.88
460.278	153.04
460.488	141.03
460.698	185.59
460.908	110.42
461.117	87.95
461.327	100.93
461.537	134.83
461.747	126.11
461.957	107.9
462.167	214.46
462.377	140.45
462.587	125.53
462.797	151.49
463.007	111.39
463.216	131.15
463.426	172.81
463.636	152.27
463.846	80.78
464.056	96.47
464.265	146.07
464.475	114.68
464.685	121.66
464.895	144.71
465.104	104.03
465.314	150.91
465.524	102.48
465.733	108.68
465.943	175.91
466.153	193.54
466.362	155.76
466.572	145.88
466.782	144.13
466.991	114.49
467.201	198.38
467.41	98.41
467.62	183.07
467.829	106.93
468.039	135.41
468.249	130.57
468.458	104.41
468.668	121.46
468.877	162.93
469.086	193.34
469.296	147.81
469.505	107.32
469.715	225.89
469.924	180.56
470.134	206.71
470.343	201.29
470.552	150.72
470.762	147.04
470.971	100.34
471.18	129.79
471.39	136.77
471.599	130.18
471.808	179.01
472.018	107.13
472.227	174.55
472.436	165.64
472.645	132.51
472.855	98.41
473.064	185.59
473.273	133.86
473.482	183.27
473.691	178.62
473.901	158.66
474.11	146.46
474.319	206.32
474.528	171.26
474.737	186.37
474.946	184.43
475.155	176.49
475.364	205.16
475.573	169.32
475.783	167.58
475.992	190.24
476.201	202.06
476.41	170.29
476.619	151.49
476.828	200.32
477.037	163.51
477.245	166.99
477.454	206.91
477.663	155.76
477.872	131.73
478.081	246.24
478.29	129.6
478.499	238.87
478.708	166.41
478.917	226.67
479.125	173.58
479.334	197.8
479.543	155.76
479.752	177.46
479.961	199.54
480.169	218.34
480.378	164.48
480.587	277.04
480.796	225.89
481.004	179.59
481.213	210.2
481.422	194.89
481.63	204.58
481.839	226.86
482.048	243.52
482.256	185.4
482.465	183.85
482.674	208.07
482.882	220.47
483.091	252.63
483.299	230.74
483.508	240.62
483.716	192.18
483.925	204.77
484.134	190.44
484.342	185.4
484.551	211.94
484.759	234.81
484.967	217.37
485.176	255.15
485.384	226.28
485.593	248.95
485.801	235.97
486.01	237.71
486.218	197.99
486.426	164.86
486.635	253.41
486.843	197.99
487.051	200.9
487.26	189.86
487.468	247.21
487.676	219.69
487.885	189.86
488.093	221.05
488.301	230.35
488.509	253.6
488.717	243.33
488.926	213.88
489.134	213.88
489.342	216.21
489.55	189.86
489.758	246.82
489.967	192.37
490.175	317.73
490.383	204.58
490.591	261.93
490.799	225.51
491.007	270.45
491.215	237.91
491.423	232.67
491.631	221.05
491.839	239.26
492.047	279.56
492.255	240.23
492.463	217.95
492.671	221.24
492.879	298.74
493.087	234.42
493.295	243.72
493.503	241.01
493.711	274.72
493.919	260.96
494.127	269.1
494.334	281.89
494.542	208.07
494.75	272.2
494.958	229.19
495.166	285.95
495.374	262.51
495.581	281.89
495.789	252.44
495.997	308.04
496.205	255.34
496.412	254.96
496.62	238.49
496.828	265.81
497.035	241.2
497.243	265.81
497.451	257.47
497.658	281.69
497.866	277.24
498.074	305.91
498.281	238.1
498.489	352.99
498.696	259.22
498.904	248.76
499.112	270.84
499.319	323.35
499.527	260.96
499.734	319.86
499.942	222.6
500.149	230.35
500.357	265.81
500.564	257.67
500.771	269.29
500.979	222.79
501.186	244.11
501.394	275.3
501.601	303.78
501.808	299.13
502.016	275.88
502.223	249.92
502.43	282.85
502.638	280.34
502.845	220.08
503.052	346.79
503.26	269.68
503.467	317.73
503.674	266.39
503.881	292.54
504.089	332.07
504.296	328.97
504.503	253.21
504.71	276.46
504.917	228.61
505.125	311.53
505.332	278.59
505.539	288.86
505.746	309.01
505.953	322.38
506.16	275.3
506.367	336.52
506.574	333.23
506.781	320.25
506.988	255.92
507.195	280.53
507.402	269.87
507.609	341.17
507.816	295.64
508.023	274.91
508.23	276.65
508.437	269.49
508.644	308.24
508.851	343.3
509.058	323.93
509.265	325.09
509.472	321.8
509.679	392.52
509.885	273.17
510.092	287.5
510.299	330.9
510.506	326.06
510.713	346.99
510.92	326.84
511.126	319.09
511.333	352.41
511.54	341.95
511.746	353.57
511.953	373.33
512.16	328
512.367	298.55
512.573	328.77
512.78	315.02
512.987	316.57
513.193	312.89
513.4	291.19
513.606	327.42
513.813	321.6
514.02	339.04
514.226	372.56
514.433	392.32
514.639	306.88
514.846	352.41
515.052	305.33
515.259	318.5
515.465	339.43
515.672	309.79
515.878	400.46
516.085	328.77
516.291	367.52
516.497	319.86
516.704	302.42
516.91	307.07
517.117	290.8
517.323	251.86
517.529	342.14
517.736	305.52
517.942	322.38
518.148	305.91
518.354	330.13
518.561	290.99
518.767	338.27
518.973	350.67
519.179	355.9
519.386	327.22
519.592	326.25
519.798	335.36
520.004	399.49
520.21	319.67
520.417	356.87
520.623	374.69
520.829	376.82
521.035	368.3
521.241	364.42
521.447	396.58
521.653	445.02
521.859	385.15
522.065	393.29
522.271	427.97
522.477	410.53
522.683	440.18
522.889	396.39
523.095	396.58
523.301	389.03
523.507	367.52
523.713	396.78
523.919	386.7
524.125	439.98
524.331	388.06
524.537	437.85
524.742	400.46
524.948	424.68
525.154	430.68
525.36	526.59
525.566	399.88
525.772	470.79
525.977	400.07
526.183	449.28
526.389	473.11
526.595	404.92
526.8	427.58
527.006	398.72
527.212	391.55
527.417	357.25
527.623	369.07
527.829	419.83
528.034	422.35
528.24	412.67
528.446	411.31
528.651	459.36
528.857	441.73
529.062	493.46
529.268	444.63
529.473	444.83
529.679	408.02
529.884	481.64
530.09	469.43
530.295	497.14
530.501	473.89
530.706	451.03
530.912	453.93
531.117	467.3
531.323	474.47
531.528	484.55
531.733	478.15
531.939	406.85
532.144	455.29
532.35	464.4
532.555	491.13
532.76	508.38
532.966	497.72
533.171	498.69
533.376	484.16
533.581	423.71
533.787	466.72
533.992	486.48
534.197	553.33
534.402	476.99
534.607	492.49
534.813	563.98
535.018	464.78
535.223	451.41
535.428	480.09
535.633	519.03
535.838	506.05
536.043	475.63
536.249	585.68
536.454	480.48
536.659	507.99
536.864	471.95
537.069	461.1
537.274	523.3
537.479	491.91
537.684	493.65
537.889	475.05
538.094	567.47
538.299	510.7
538.504	557.78
538.708	523.49
538.913	510.31
539.118	490.16
539.323	526.2
539.528	485.13
539.733	516.71
539.938	515.35
540.142	515.93
540.347	496.95
540.552	489.78
540.757	522.91
540.962	500.05
541.166	455.29
541.371	468.08
541.576	527.95
541.781	424.29
541.985	522.71
542.19	555.84
542.395	601.76
542.599	560.49
542.804	553.91
543.008	541.31
543.213	502.95
543.418	486.87
543.622	511.86
543.827	504.7
544.031	557.78
544.236	564.18
544.44	507.41
544.645	570.76
544.849	527.95
545.054	551.97
545.258	606.22
545.463	579.87
545.667	502.76
545.872	564.95
546.076	570.57
546.281	531.05
546.485	517.87
546.689	529.88
546.894	575.99
547.098	510.7
547.302	505.47
547.507	538.79
547.711	549.84
547.915	577.93
548.119	497.72
548.324	522.33
548.528	575.61
548.732	532.98
548.936	576.38
549.141	590.53
549.345	503.34
549.549	553.91
549.753	546.35
549.957	593.04
550.161	585.68
550.366	555.26
550.57	525.23
550.774	536.47
550.978	528.91
551.182	581.42
551.386	558.94
551.59	513.41
551.794	518.26
551.998	553.91
552.202	536.86
552.406	505.08
552.61	529.88
552.814	548.48
553.018	592.66
553.222	552.74
553.426	524.26
553.63	599.83
553.833	533.18
554.037	507.02
554.241	567.08
554.445	552.16
554.649	524.85
554.853	509.73
555.056	551.58
555.26	556.62
555.464	571.34
555.668	553.91
555.871	576.77
556.075	591.88
556.279	522.91
556.483	491.52
556.686	526.59
556.89	536.47
557.094	570.18
557.297	493.85
557.501	554.29
557.704	502.76
557.908	579.68
558.112	527.36
558.315	596.34
558.519	552.94
558.722	536.66
558.926	522.52
559.129	495.01
559.333	485.71
559.536	499.46
559.74	510.12
559.943	508.57
560.147	488.42
560.35	515.93
560.553	500.05
560.757	457.03
560.96	568.24
561.164	461.88
561.367	575.61
561.57	510.51
561.774	514.96
561.977	496.56
562.18	460.91
562.384	589.36
562.587	513.03
562.79	464.59
562.993	511.67
563.197	537.24
563.4	563.01
563.603	550.61
563.806	577.74
564.009	471.56
564.212	544.99
564.416	465.17
564.619	521.55
564.822	469.82
565.025	552.36
565.228	505.86
565.431	505.08
565.634	436.69
565.837	454.71
566.04	482.22
566.243	468.27
566.446	402.78
566.649	503.92
566.852	438.05
567.055	468.85
567.258	516.13
567.461	551.39
567.664	518.45
567.867	429.91
568.07	509.15
568.273	470.79
568.475	520.2
568.678	483.58
568.881	473.11
569.084	510.51
569.287	429.91
569.489	434.56
569.692	490.94
569.895	479.9
570.098	427.39
570.3	444.63
570.503	386.12
570.706	404.92
570.909	407.82
571.111	408.6
571.314	410.53
571.516	410.73
571.719	444.83
571.922	421.97
572.124	405.5
572.327	440.57
572.529	375.27
572.732	369.46
572.935	416.35
573.137	443.86
573.34	403.17
573.542	427.97
573.745	424.29
573.947	416.54
574.15	411.12
574.352	400.07
574.554	456.84
574.757	377.4
574.959	386.51
575.162	381.08
575.364	412.47
575.566	471.37
575.769	374.3
575.971	420.03
576.173	361.9
576.376	411.12
576.578	436.3
576.78	463.23
576.982	349.5
577.185	382.25
577.387	334.78
577.589	350.09
577.791	440.76
577.993	416.35
578.196	348.34
578.398	428.94
578.6	452.96
578.802	328.97
579.004	362.87
579.206	357.45
579.408	365.97
579.61	385.15
579.812	404.53
580.014	369.07
580.216	354.15
580.418	389.03
580.62	339.43
580.822	297
581.024	384.18
581.226	406.08
581.428	369.46
581.63	414.99
581.832	335.55
582.034	401.43
582.236	379.92
582.438	380.12
582.64	423.13
582.841	455.29
583.043	449.48
583.245	390
583.447	375.85
583.649	376.24
583.85	389.42
584.052	414.99
584.254	340.59
584.456	398.52
584.657	355.51
584.859	375.27
585.061	367.72
585.262	354.54
585.464	356.87
585.666	425.65
585.867	377.6
586.069	425.45
586.27	392.32
586.472	382.83
586.674	350.28
586.875	345.82
587.077	353.96
587.278	387.48
587.48	340.4
587.681	437.85
587.883	394.26
588.084	312.11
588.285	370.43
588.487	363.26
588.688	380.7
588.89	345.24
589.091	355.7
589.292	362.68
589.494	347.57
589.695	342.14
589.896	304.55
590.098	277.43
590.299	365.39
590.5	312.89
590.702	331.49
590.903	330.9
591.104	397.36
591.305	338.85
591.507	394.07
591.708	371.01
591.909	290.41
592.11	406.08
592.311	360.74
592.512	325.29
592.714	316.76
592.915	327.61
593.116	313.66
593.317	321.41
593.518	352.22
593.719	325.48
593.92	390.77
594.121	362.48
594.322	322.19
594.523	351.25
594.724	281.89
594.925	321.99
595.126	360.35
595.327	351.25
595.528	357.06
595.729	370.23
595.929	369.85
596.13	350.09
596.331	334.97
596.532	347.37
596.733	377.79
596.934	345.82
597.135	371.2
597.335	364.62
597.536	304.75
597.737	357.06
597.938	320.83
598.138	347.18
598.339	340.01
598.54	355.32
598.74	344.08
598.941	339.62
599.142	367.13
599.342	355.7
599.543	297.58
599.744	339.24
599.944	316.18
600.145	313.85
600.345	351.25
600.546	426.03
600.746	381.08
600.947	397.75
601.147	341.75
601.348	376.82
601.548	314.63
601.749	321.41
601.949	304.36
602.15	316.57
602.35	337.3
602.551	398.72
602.751	306.69
602.951	311.34
603.152	287.7
603.352	331.1
603.552	321.6
603.753	330.32
603.953	345.63
604.153	342.72
604.354	307.85
604.554	326.06
604.754	297.39
604.954	313.08
605.155	346.79
605.355	303.2
605.555	354.54
605.755	381.47
605.955	334
606.155	359.97
606.356	329.55
606.556	352.41
606.756	338.07
606.956	296.03
607.156	375.85
607.356	288.09
607.556	318.89
607.756	319.09
607.956	387.09
608.156	330.71
608.356	309.59
608.556	345.63
608.756	333.81
608.956	296.03
609.156	328.39
609.356	303.39
609.556	297.97
609.755	346.6
609.955	303.97
610.155	324.32
610.355	342.53
610.555	304.75
610.755	348.15
610.954	276.65
611.154	335.94
611.354	353.77
611.554	314.24
611.753	306.69
611.953	287.7
612.153	346.02
612.352	345.63
612.552	285.95
612.752	253.79
612.951	313.27
613.151	314.05
613.351	280.72
613.55	298.74
613.75	339.43
613.949	331.87
614.149	341.56
614.348	316.18
614.548	271.81
614.747	272
614.947	290.8
615.146	260.38
615.346	314.44
615.545	273.17
615.745	294.87
615.944	338.46
616.144	288.28
616.343	337.1
616.542	296.61
616.742	299.13
616.941	310.37
617.14	258.64
617.34	301.84
617.539	287.5
617.738	286.34
617.938	366.17
618.137	288.28
618.336	244.69
618.535	316.18
618.734	292.35
618.934	279.56
619.133	290.22
619.332	316.95
619.531	260.77
619.73	286.34
619.929	351.44
620.128	324.51
620.328	327.22
620.527	250.89
620.726	267.16
620.925	299.71
621.124	232.67
621.323	303.97
621.522	250.89
621.721	269.49
621.92	269.1
622.119	300.68
622.318	253.6
622.517	266.39
622.715	275.1
622.914	230.74
623.113	251.86
623.312	245.46
623.511	274.52
623.71	260.77
623.909	255.73
624.107	333.81
624.306	218.72
624.505	279.75
624.704	249.92
624.902	293.32
625.101	311.72
625.3	283.44
625.499	246.24
625.697	272.59
625.896	253.99
626.095	285.37
626.293	234.22
626.492	247.98
626.69	288.47
626.889	254.76
627.088	272.59
627.286	217.17
627.485	236.36
627.683	217.76
627.882	280.34
628.08	207.87
628.279	266.19
628.477	313.66
628.676	227.44
628.874	284.21
629.073	220.47
629.271	184.43
629.469	268.13
629.668	237.13
629.866	257.67
630.065	256.7
630.263	275.3
630.461	212.14
630.66	242.36
630.858	263.87
631.056	290.8
631.254	257.09
631.453	235.97
631.651	269.87
631.849	246.82
632.047	266.19
632.245	245.07
632.444	240.23
632.642	262.12
632.84	274.52
633.038	225.89
633.236	207.68
633.434	222.02
633.632	220.66
633.83	239.46
634.028	261.74
634.227	247.4
634.425	292.54
634.623	263.87
634.821	236.74
635.019	237.32
635.216	228.61
635.414	249.72
635.612	236.55
635.81	231.12
636.008	293.51
636.206	240.62
636.404	260.19
636.602	241.97
636.8	268.32
636.997	259.99
637.195	295.84
637.393	245.07
637.591	299.9
637.789	264.64
637.986	257.67
638.184	251.66
638.382	291.77
638.58	278.01
638.777	289.25
638.975	247.59
639.173	264.26
639.37	247.59
639.568	259.41
639.765	293.32
639.963	224.92
640.161	291.38
640.358	276.85
640.556	223.18
640.753	220.66
640.951	226.86
641.148	250.31
641.346	234.81
641.543	224.92
641.741	256.7
641.938	238.1
642.136	249.53
642.333	216.21
642.531	267.74
642.728	306.3
642.925	233.64
643.123	231.12
643.32	265.61
643.517	258.06
643.715	261.93
643.912	218.53
644.109	260.19
644.306	248.76
644.504	232.09
644.701	255.34
644.898	265.81
645.095	208.07
645.293	254.76
645.49	277.24
645.687	266.97
645.884	271.04
646.081	197.99
646.278	227.44
646.475	218.92
646.672	226.67
646.87	238.68
647.067	233.26
647.264	243.14
647.461	194.89
647.658	190.05
647.855	248.56
648.052	219.31
648.249	139.48
648.446	224.73
648.642	191.6
648.839	204
649.036	214.27
649.233	176.49
649.43	173.39
649.627	174.74
649.824	192.18
650.021	214.85
650.217	211.75
650.414	173.97
650.611	226.09
650.808	222.79
651.004	203.22
651.201	231.9
651.398	252.05
651.595	203.03
651.791	185.01
651.988	255.34
652.185	210.2
652.381	189.27
652.578	160.41
652.775	214.66
652.971	191.02
653.168	196.06
653.364	234.22
653.561	149.75
653.757	194.31
653.954	200.9
654.15	213.49
654.347	281.5
654.543	192.18
654.74	173.78
654.936	160.6
655.133	180.56
655.329	197.22
655.525	205.55
655.722	230.93
655.918	186.37
656.115	238.1
656.311	171.64
656.507	158.08
656.704	135.8
656.9	171.84
657.096	155.37
657.292	145.29
657.489	191.6
657.685	213.11
657.881	160.41
658.077	175.13
658.273	174.94
658.47	259.99
658.666	190.44
658.862	208.84
659.058	177.84
659.254	205.55
659.45	150.91
659.646	197.99
659.842	185.4
660.038	238.87
660.234	159.05
660.43	166.03
660.626	245.46
660.822	210.97
661.018	223.76
661.214	171.26
661.41	172.61
661.606	209.62
661.802	211.75
661.998	185.01
662.194	152.08
662.39	198.77
662.586	209.62
662.781	210.59
662.977	201.48
663.173	255.34
663.369	174.16
663.564	210.59
663.76	230.93
663.956	178.04
664.152	233.84
664.347	147.81
664.543	197.61
664.739	188.11
664.934	132.31
665.13	137.35
665.326	194.31
665.521	186.76
665.717	145.88
665.912	171.26
666.108	149.94
666.304	162.15
666.499	173.58
666.695	119.72
666.89	163.12
667.086	214.46
667.281	197.8
667.477	222.99
667.672	183.85
667.867	154.98
668.063	197.02
668.258	159.44
668.454	160.21
668.649	256.12
668.844	198.77
669.04	214.07
669.235	164.86
669.43	182.11
669.626	135.03
669.821	155.37
670.016	143.55
670.211	148.78
670.407	141.23
670.602	152.46
670.797	181.91
670.992	195.47
671.187	159.24
671.382	197.22
671.578	167.77
671.773	200.71
671.968	145.49
672.163	166.61
672.358	187.34
672.553	176.49
672.748	140.26
672.943	219.31
673.138	153.82
673.333	190.05
673.528	165.06
673.723	198.19
673.918	180.75
674.113	128.63
674.308	246.04
674.503	182.11
674.698	203.42
674.892	192.76
675.087	172.03
675.282	188.89
675.477	118.17
675.672	203.42
675.867	178.23
676.061	121.08
676.256	145.68
676.451	156.73
676.646	174.74
676.84	124.18
677.035	111.78
677.23	110.81
677.424	161.96
677.619	206.13
677.814	152.85
678.008	189.86
678.203	99.38
678.397	142
678.592	165.44
678.787	221.24
678.981	165.64
679.176	182.88
679.37	174.55
679.565	145.29
679.759	135.99
679.954	187.72
680.148	187.92
680.342	208.07
680.537	210.59
680.731	140.64
680.926	168.93
681.12	172.42
681.314	164.09
681.509	165.64
681.703	163.51
681.897	187.14
682.092	161.96
682.286	152.85
682.48	219.31
682.674	207.87
682.869	125.34
683.063	148.78
683.257	228.8
683.451	147.04
683.645	187.14
683.839	184.04
684.034	166.03
684.228	161.76
684.422	148.59
684.616	143.16
684.81	191.21
685.004	159.83
685.198	166.03
685.392	175.52
685.586	142.19
685.78	164.28
685.974	198.96
686.168	172.03
686.362	238.29
686.556	134.83
686.75	150.14
686.944	171.64
687.138	187.34
687.331	109.06
687.525	150.53
687.719	114.49
687.913	145.1
688.107	176.68
688.301	142.78
688.494	168.16
688.688	120.49
688.882	92.79
689.076	84.65
689.269	142
689.463	209.81
689.657	117.78
689.85	137.16
690.044	144.91
690.238	111.97
690.431	149.36
690.625	111.39
690.818	143.36
691.012	143.36
691.205	171.06
691.399	96.08
691.593	148.59
691.786	208.46
691.98	176.1
692.173	207.49
692.366	166.61
692.56	185.01
692.753	228.99
692.947	151.69
693.14	236.94
693.333	203.03
693.527	132.12
693.72	184.62
693.914	152.27
694.107	156.14
694.3	200.32
694.493	147.04
694.687	220.47
694.88	161.96
695.073	224.15
695.266	188.31
695.46	191.21
695.653	205.16
695.846	232.09
696.039	168.54
696.232	194.89
696.425	202.45
696.618	178.04
696.812	183.46
697.005	232.87
697.198	295.64
697.391	204.77
697.584	242.75
697.777	260.38
697.97	244.69
698.163	242.36
698.356	229.57
698.549	330.13
698.742	277.04
698.935	238.49
699.127	259.02
699.32	253.6
699.513	218.34
699.706	258.06
699.899	284.6
700.092	253.21
700.285	249.53
700.477	234.42
700.67	279.37
700.863	274.72
701.056	347.57
701.248	315.4
701.441	310.75
701.634	264.06
701.826	355.32
702.019	267.55
702.212	322.96
702.404	260.96
702.597	294.48
702.79	287.5
702.982	301.84
703.175	328.39
703.367	358.42
703.56	328.58
703.752	412.08
703.945	319.67
704.137	344.66
704.33	353.19
704.522	361.71
704.715	375.08
704.907	390.97
705.1	374.11
705.292	398.91
705.484	368.3
705.677	393.1
705.869	405.3
706.061	431.85
706.254	439.79
706.446	414.41
706.638	409.95
706.831	465.75
707.023	417.32
707.215	490.16
707.407	461.49
707.599	452.38
707.792	468.66
707.984	467.88
708.176	514
708.368	447.54
708.56	462.07
708.752	442.12
708.944	459.94
709.136	477.76
709.329	434.17
709.521	573.09
709.713	514.58
709.905	528.72
710.097	527.75
710.289	530.27
710.481	519.61
710.672	522.33
710.864	531.24
711.056	601.57
711.248	569.99
711.44	567.86
711.632	553.91
711.824	549.84
712.016	599.83
712.207	591.69
712.399	603.51
712.591	661.82
712.783	612.42
712.975	607.58
713.166	612.42
713.358	599.44
713.55	678.87
713.741	638.38
713.933	655.04
714.125	656.59
714.316	636.83
714.508	683.91
714.7	735.84
714.891	704.26
715.083	712.59
715.274	672.67
715.466	667.83
715.657	700.96
715.849	638.77
716.04	719.75
716.232	630.82
716.423	756.37
716.615	668.8
716.806	643.81
716.998	680.81
717.189	627.34
717.381	603.7
717.572	606.41
717.763	641.48
717.955	601.57
718.146	594.4
718.337	567.28
718.528	570.57
718.72	524.65
718.911	590.14
719.102	568.63
719.293	622.88
719.485	565.92
719.676	601.96
719.867	550.42
720.058	539.38
720.249	553.13
720.44	606.99
720.632	635.47
720.823	644
721.014	700.57
721.205	691.08
721.396	720.14
721.587	773.81
721.778	746.1
721.969	785.82
722.16	795.9
722.351	767.42
722.542	873.78
722.733	867.39
722.924	794.54
723.115	867
723.305	868.55
723.496	837.75
723.687	800.55
723.878	805
724.069	807.72
724.26	832.71
724.45	771.68
724.641	798.42
724.832	844.92
725.023	809.07
725.213	788.15
725.404	797.83
725.595	802.1
725.785	794.15
725.976	838.72
726.167	863.71
726.357	812.37
726.548	918.93
726.739	822.83
726.929	863.71
727.12	899.55
727.31	946.63
727.501	876.3
727.691	917.57
727.882	929.2
728.072	925.51
728.263	925.32
728.453	927.84
728.644	949.54
728.834	954.19
729.024	933.85
729.215	938.11
729.405	955.93
729.596	1005.92
729.786	992.55
729.976	1002.04
730.167	1056.68
730.357	970.08
730.547	955.35
730.737	1017.74
730.928	1067.14
731.118	1102.79
731.308	1045.64
731.498	1052.81
731.688	1086.52
731.879	1069.86
732.069	1110.35
732.259	1116.16
732.449	1105.7
732.639	1175.25
732.829	1200.64
733.019	1243.07
733.209	1260.5
733.399	1267.48
733.589	1304.29
733.779	1274.65
733.969	1276.39
734.159	1317.27
734.349	1342.07
734.539	1344.78
734.729	1375.2
734.919	1395.35
735.109	1415.89
735.299	1369.39
735.488	1389.73
735.678	1413.76
735.868	1409.88
736.058	1428.68
736.248	1373.65
736.437	1357.38
736.627	1344.59
736.817	1475.95
737.007	1416.08
737.196	1448.05
737.386	1430.03
737.576	1376.75
737.765	1466.46
737.955	1450.76
738.144	1531.56
738.334	1483.7
738.524	1476.92
738.713	1465.1
738.903	1501.14
739.092	1543.37
739.282	1530.2
739.471	1545.51
739.661	1505.79
739.85	1520.51
740.04	1542.6
740.229	1579.8
740.419	1598.4
740.608	1598.4
740.797	1621.07
740.987	1644.32
741.176	1638.7
741.365	1587.35
741.555	1580.96
741.744	1640.25
741.933	1612.35
742.123	1661.17
742.312	1644.51
742.501	1657.3
742.69	1701.86
742.88	1617.77
743.069	1719.1
743.258	1672.8
743.447	1731.12
743.636	1707.28
743.825	1681.13
744.014	1683.84
744.204	1691.01
744.393	1663.69
744.582	1725.3
744.771	1792.34
744.96	1689.07
745.149	1722.4
745.338	1701.28
745.527	1763.66
745.716	1728.98
745.905	1703.99
746.094	1758.43
746.283	1738.87
746.471	1746.23
746.66	1775.29
746.849	1745.45
747.038	1814.43
747.227	1744.48
747.416	1774.51
747.604	1697.6
747.793	1730.53
747.982	1753.01
748.171	1744.68
748.359	1814.43
748.548	1760.18
748.737	1764.44
748.926	1778.58
749.114	1673.57
749.303	1756.5
749.491	1762.5
749.68	1717.75
749.869	1792.34
750.057	1734.99
750.246	1765.41
750.434	1736.35
750.623	1755.91
750.811	1765.02
751	1805.51
751.188	1736.93
751.377	1786.33
751.565	1728.4
751.754	1718.13
751.942	1697.4
752.131	1765.41
752.319	1718.52
752.507	1677.83
752.696	1770.83
752.884	1825.66
753.072	1735.96
753.261	1772.77
753.449	1740.61
753.637	1705.73
753.825	1840.39
754.014	1710.77
754.202	1758.63
754.39	1817.14
754.578	1784.01
754.766	1691.98
754.955	1663.3
755.143	1791.37
755.331	1725.3
755.519	1730.73
755.707	1759.01
755.895	1723.95
756.083	1717.36
756.271	1668.15
756.459	1707.48
756.647	1725.88
756.835	1725.3
757.023	1727.05
757.211	1702.05
757.399	1708.64
757.587	1718.91
757.775	1664.47
757.963	1706.12
758.151	1715.23
758.339	1661.17
758.526	1687.33
758.714	1682.68
758.902	1660.59
759.09	1605.95
759.278	1487.77
759.465	1365.71
759.653	1173.9
759.841	1084.97
760.028	902.07
760.216	761.02
760.404	778.07
760.591	613.39
760.779	538.02
760.967	439.02
761.154	306.88
761.342	428.94
761.529	405.88
761.717	426.81
761.905	408.21
762.092	434.75
762.28	371.98
762.467	411.5
762.655	347.18
762.842	367.52
763.029	376.24
763.217	403.95
763.404	382.25
763.592	419.83
763.779	365.58
763.966	419.25
764.154	424.68
764.341	463.43
764.528	474.86
764.716	478.73
764.903	498.69
765.09	543.83
765.277	576.77
765.465	666.09
765.652	717.62
765.839	746.3
766.026	837.36
766.213	810.23
766.4	879.6
766.588	1021.42
766.775	961.94
766.962	1033.43
767.149	1062.69
767.336	1145.03
767.523	1095.24
767.71	1176.03
767.897	1283.95
768.084	1313.59
768.271	1306.23
768.458	1349.24
768.645	1368.61
768.832	1339.94
769.019	1375.4
769.206	1423.06
769.392	1435.84
769.579	1490.87
769.766	1459.68
769.953	1451.15
770.14	1528.84
770.327	1490.09
770.513	1502.11
770.7	1549.38
770.887	1490.29
771.073	1527.29
771.26	1510.05
771.447	1482.93
771.634	1515.09
771.82	1565.46
772.007	1502.69
772.193	1538.34
772.38	1571.86
772.567	1541.05
772.753	1531.94
772.94	1574.18
773.126	1555.39
773.313	1556.94
773.499	1534.07
773.686	1526.52
773.872	1536.4
774.059	1557.71
774.245	1465.68
774.432	1551.12
774.618	1448.05
774.804	1521.09
774.991	1493
775.177	1554.81
775.363	1498.81
775.55	1556.36
775.736	1511.99
775.922	1532.33
776.109	1481.96
776.295	1510.24
776.481	1541.44
776.667	1555.97
776.853	1508.11
777.04	1461.42
777.226	1514.89
777.412	1558.87
777.598	1482.93
777.784	1451.15
777.97	1452.89
778.156	1498.62
778.342	1485.83
778.528	1449.41
778.715	1407.94
778.901	1442.43
779.087	1489.32
779.272	1442.24
779.458	1422.86
779.644	1485.25
779.83	1437.98
780.016	1505.79
780.202	1465.68
780.388	1459.68
780.574	1376.36
780.76	1425.77
780.946	1459.29
781.131	1440.3
781.317	1437.39
781.503	1418.41
781.689	1401.94
781.874	1499.97
782.06	1450.38
782.246	1429.06
782.432	1403.49
782.617	1466.46
782.803	1439.33
782.989	1381.21
783.174	1397.87
783.36	1309.72
783.545	1376.75
783.731	1394.19
783.916	1325.41
784.102	1404.07
784.288	1343.04
784.473	1402.52
784.659	1357.57
784.844	1404.85
785.029	1367.26
785.215	1334.32
785.4	1291.31
785.586	1400.78
785.771	1297.12
785.956	1361.64
786.142	1360.48
786.327	1352.92
786.512	1309.13
786.698	1342.65
786.883	1296.93
787.068	1332.58
787.254	1332
787.439	1307.39
787.624	1314.37
787.809	1284.53
787.994	1273.68
788.18	1338.39
788.365	1276.2
788.55	1264.18
788.735	1304.87
788.92	1274.84
789.105	1270.77
789.29	1284.72
789.475	1214.97
789.66	1257.79
789.845	1251.78
790.03	1230.28
790.215	1243.65
790.4	1278.52
790.585	1289.18
790.77	1252.56
790.955	1172.54
791.14	1227.18
791.325	1288.4
791.51	1154.91
791.695	1250.23
791.879	1185.72
792.064	1182.42
792.249	1268.83
792.434	1217.1
792.618	1205.09
792.803	1211.29
792.988	1196.57
793.173	1219.24
793.357	1220.4
793.542	1205.09
793.727	1216.72
793.911	1239
794.096	1216.33
794.281	1222.53
794.465	1286.66
794.65	1226.99
794.834	1271.16
795.019	1271.74
795.203	1270.38
795.388	1272.13
795.572	1280.27
795.757	1234.15
795.941	1261.86
796.126	1251.01
796.31	1167.31
796.494	1263.8
796.679	1237.64
796.863	1200.05
797.048	1258.76
797.232	1239.58
797.416	1248.88
797.601	1226.99
797.785	1278.72
797.969	1272.32
798.153	1206.45
798.338	1247.13
798.522	1245.97
798.706	1270.19
798.89	1262.05
799.074	1346.14
799.258	1286.27
799.443	1237.64
799.627	1247.91
799.811	1284.14
799.995	1274.07
800.179	1223.3
800.363	1248.1
800.547	1251.4
800.731	1300.03
800.915	1195.4
801.099	1199.86
801.283	1218.07
801.467	1247.13
801.651	1234.35
801.835	1280.46
802.019	1283.75
802.202	1255.66
802.386	1198.12
802.57	1202.96
802.754	1203.93
802.938	1202.38
803.121	1197.73
803.305	1229.89
803.489	1232.41
803.673	1213.23
803.856	1271.35
804.04	1224.27
804.224	1255.85
804.407	1228.15
804.591	1230.67
804.775	1242.48
804.958	1254.5
805.142	1325.02
805.326	1250.04
805.509	1274.07
805.693	1281.23
805.876	1281.23
806.06	1251.2
806.243	1273.1
806.427	1296.15
806.61	1258.57
806.794	1243.45
806.977	1288.21
807.16	1255.85
807.344	1237.06
807.527	1258.57
807.71	1209.16
807.894	1239.77
808.077	1289.76
808.26	1216.91
808.444	1206.64
808.627	1276
808.81	1222.92
808.993	1178.55
809.177	1185.33
809.36	1208.97
809.543	1241.52
809.726	1128.56
809.909	1185.72
810.092	1143.29
810.276	1130.89
810.459	1156.27
810.642	1163.44
810.825	1143.48
811.008	1180.29
811.191	1083.61
811.374	1092.33
811.557	1109.77
811.74	1179.9
811.923	1076.64
812.106	1076.06
812.289	1023.55
812.472	1055.91
812.654	1112.09
812.837	1049.71
813.02	1045.44
813.203	991.78
813.386	970.46
813.569	951.28
813.751	904.4
813.934	961.94
814.117	948.96
814.3	915.83
814.482	879.4
814.665	902.26
814.848	871.85
815.03	856.54
815.213	835.23
815.396	835.62
815.578	828.25
815.761	787.37
815.943	858.67
816.126	792.99
816.309	742.04
816.491	734.67
816.674	699.99
816.856	742.42
817.039	738.35
817.221	819.92
817.403	760.64
817.586	749.2
817.768	769.55
817.951	710.84
818.133	707.35
818.315	739.71
818.498	760.05
818.68	780.4
818.862	768
819.045	817.4
819.227	795.32
819.409	762.57
819.591	768.97
819.774	774.97
819.956	744.36
820.138	801.52
820.32	785.24
820.502	792.6
820.684	861.97
820.866	856.93
821.048	873.4
821.231	872.23
821.413	870.88
821.595	837.17
821.777	871.27
821.959	845.88
822.141	908.46
822.323	792.6
822.505	766.25
822.686	773.81
822.868	722.47
823.05	668.99
823.232	646.71
823.414	639.54
823.596	718.59
823.778	664.92
823.96	696.12
824.141	683.72
824.323	704.84
824.505	751.72
824.687	761.99
824.868	811.98
825.05	867.97
825.232	848.98
825.413	928.61
825.595	839.68
825.777	788.54
825.958	857.12
826.14	820.5
826.321	863.13
826.503	822.63
826.685	831.16
826.866	859.25
827.048	873.98
827.229	809.65
827.411	810.43
827.592	801.13
827.773	801.52
827.955	755.4
828.136	741.07
828.318	742.23
828.499	798.61
828.68	729.83
828.862	766.06
829.043	771.68
829.224	768
829.406	746.49
829.587	763.15
829.768	721.3
829.949	755.99
830.131	730.8
830.312	800.16
830.493	735.64
830.674	788.15
830.855	755.4
831.036	750.17
831.218	781.17
831.399	822.44
831.58	762.77
831.761	723.24
831.942	805
832.123	754.63
832.304	744.55
832.485	745.91
832.666	745.72
832.847	742.42
833.028	774.97
833.209	746.3
833.389	745.52
833.57	722.47
833.751	723.05
833.932	784.27
834.113	765.29
834.294	743.59
834.475	764.51
834.655	783.69
834.836	788.15
835.017	775.75
835.198	743
835.378	768.19
835.559	795.9
835.74	755.6
835.92	755.4
836.101	741.07
836.281	806.94
836.462	775.75
836.643	808.49
836.823	816.43
837.004	786.4
837.184	855.18
837.365	806.55
837.545	811.4
837.726	764.7
837.906	834.07
838.087	798.61
838.267	791.05
838.448	759.28
838.628	835.42
838.808	823.6
838.989	838.72
839.169	742.62
839.349	802.1
839.53	803.45
839.71	814.88
839.89	770.9
840.07	856.35
840.251	773.04
840.431	828.83
840.611	806.55
840.791	745.91
840.971	810.62
841.151	768
841.332	779.24
841.512	812.56
841.692	740.1
841.872	808.1
842.052	775.17
842.232	792.6
842.412	754.24
842.592	779.43
842.772	800.35
842.952	754.63
843.132	793.19
843.312	768
843.492	781.37
843.672	830
843.851	737
844.031	771.87
844.211	776.33
844.391	738.94
844.571	790.86
844.751	792.22
844.93	786.79
845.11	712.97
845.29	775.17
845.47	796.09
845.649	757.73
845.829	824.96
846.009	775.36
846.188	779.62
846.368	784.08
846.547	776.33
846.727	778.27
846.907	724.02
847.086	782.72
847.266	768
847.445	739.13
847.625	728.28
847.804	705.03
847.984	760.64
848.163	762.96
848.343	721.69
848.522	757.73
848.701	792.6
848.881	720.72
849.06	759.28
849.239	786.79
849.419	727.89
849.598	705.61
849.777	719.17
849.957	727.7
850.136	660.66
850.315	657.56
850.494	672.67
850.674	687.79
850.853	742.23
851.032	696.31
851.211	724.6
851.39	703.87
851.569	649.81
851.748	645.94
851.927	721.89
852.107	671.51
852.286	640.71
852.465	676.94
852.644	701.74
852.823	724.99
853.002	681.78
853.181	696.51
853.359	688.17
853.538	677.32
853.717	718.79
853.896	647.87
854.075	615.52
854.254	595.76
854.433	557.78
854.611	641.09
854.79	573.48
854.969	602.34
855.148	635.67
855.327	587.62
855.505	612.81
855.684	617.84
855.863	638.57
856.041	591.88
856.22	630.05
856.399	595.37
856.577	684.11
856.756	660.27
856.934	759.86
857.113	750.17
857.291	658.53
857.47	640.12
857.648	632.37
857.827	663.96
858.005	688.95
858.184	627.34
858.362	717.24
858.541	650.01
858.719	657.17
858.898	674.81
859.076	647.68
859.254	711.04
859.433	645.36
859.611	663.96
859.789	579.68
859.967	689.92
860.146	704.45
860.324	610.68
860.502	618.62
860.68	600.79
860.859	630.05
861.037	626.56
861.215	642.06
861.393	655.43
861.571	634.51
861.749	632.96
861.927	637.22
862.105	612.03
862.283	621.14
862.461	588.2
862.639	598.47
862.817	593.63
862.995	629.86
863.173	608.93
863.351	608.16
863.529	602.73
863.707	674.03
863.885	632.96
864.063	569.21
864.241	608.54
864.418	660.86
864.596	592.08
864.774	567.47
864.952	590.14
865.129	618.04
865.307	585.88
865.485	545.58
865.663	631.99
865.84	552.74
866.018	597.31
866.196	497.14
866.373	537.44
866.551	519.03
866.728	490.75
866.906	522.33
867.084	529.11
867.261	549.84
867.439	590.33
867.616	571.73
867.794	553.13
867.971	529.69
868.149	550.03
868.326	597.31
868.503	593.04
868.681	569.41
868.858	587.04
869.035	517.87
869.213	596.73
869.39	593.82
869.567	642.26
869.745	554.49
869.922	573.09
870.099	571.73
870.276	596.73
870.454	586.84
870.631	605.25
870.808	543.83
870.985	577.16
871.162	630.82
871.339	581.61
871.517	542.67
871.694	541.7
871.871	542.48
872.048	541.12
872.225	527.56
872.402	556.04
872.579	526.01
872.756	553.71
872.933	499.27
873.11	551.78
873.287	527.36
873.463	525.62
873.64	541.89
873.817	569.21
873.994	572.89
874.171	547.32
874.348	534.73
874.524	502.56
874.701	543.64
874.878	481.06
875.055	530.66
875.231	549.84
875.408	544.22
875.585	500.82
875.762	519.03
875.938	494.62
876.115	535.11
876.291	501.21
876.468	515.55
876.645	480.86
876.821	492.1
876.998	493.26
877.174	518.65
877.351	515.55
877.527	492.49
877.704	527.56
877.88	539.57
878.057	506.63
878.233	525.62
878.409	479.7
878.586	510.31
878.762	505.28
878.938	490.55
879.115	424.48
879.291	500.05
879.467	443.86
879.644	474.28
879.82	506.25
879.996	469.63
880.172	448.9
880.349	469.05
880.525	510.12
880.701	469.63
880.877	451.41
881.053	499.08
881.229	490.55
881.405	510.9
881.581	439.21
881.757	469.05
881.933	475.05
882.109	485.32
882.285	475.05
882.461	412.28
882.637	458
882.813	437.27
882.989	474.28
883.165	499.85
883.341	466.14
883.517	492.88
883.693	459.75
883.869	509.15
884.044	446.76
884.22	498.11
884.396	511.48
884.572	502.18
884.747	475.05
884.923	474.28
885.099	500.05
885.275	489
885.45	432.04
885.626	470.4
885.801	436.69
885.977	450.83
886.153	426.23
886.328	493.46
886.504	459.94
886.679	459.55
886.855	437.66
887.03	462.46
887.206	487.45
887.381	480.28
887.557	496.75
887.732	490.75
887.908	496.95
888.083	509.73
888.258	457.03
888.434	457.42
888.609	471.95
888.784	513.61
888.96	437.85
889.135	410.15
889.31	463.62
889.485	473.89
889.661	449.28
889.836	485.9
890.011	488.03
890.186	449.09
890.361	419.64
890.537	481.83
890.712	466.33
890.887	465.75
891.062	459.75
891.237	506.63
891.412	440.57
891.587	474.28
891.762	482.61
891.937	499.85
892.112	429.13
892.287	446.57
892.462	402.59
892.637	416.35
892.812	404.14
892.987	407.24
893.161	384.18
893.336	408.21
893.511	403.56
893.686	444.05
893.861	428.55
894.035	399.1
894.21	412.08
894.385	383.41
894.56	396
894.734	359
894.909	399.3
895.084	377.98
895.258	385.35
895.433	374.69
895.608	385.73
895.782	324.51
895.957	359.19
896.131	378.37
896.306	328.77
896.48	348.92
896.655	348.34
896.829	281.89
897.004	288.47
897.178	298.35
897.353	300.68
897.527	372.37
897.701	302.23
897.876	244.49
898.05	352.22
898.224	333.62
898.399	358.22
898.573	322.57
898.747	224.54
898.921	316.95
899.096	243.52
899.27	262.32
899.444	229.96
899.618	256.31
899.792	267.16
899.967	262.9
900.141	275.3
900.315	200.71
900.489	259.99
900.663	279.56
900.837	278.79
901.011	240.04
901.185	326.25
901.359	274.72
901.533	294.29
901.707	290.02
901.881	261.74
902.055	212.14
902.229	249.92
902.403	306.1
902.576	242.94
902.75	260.38
902.924	360.55
903.098	272.78
903.272	320.05
903.446	324.9
903.619	317.34
903.793	339.24
903.967	317.92
904.14	325.48
904.314	365
904.488	331.1
904.661	379.73
904.835	322.38
905.009	354.54
905.182	389.8
905.356	328.39
905.529	338.27
905.703	317.73
905.876	332.65
906.05	287.12
906.223	290.6
906.397	277.82
906.57	266.77
906.744	254.96
906.917	247.4
907.09	261.74
907.264	284.21
907.437	257.47
907.61	197.99
907.784	253.6
907.957	246.62
908.13	230.54
908.304	283.82
908.477	217.17
908.65	242.75
908.823	195.67
908.996	288.47
909.17	253.41
909.343	220.27
909.516	262.9
909.689	256.7
909.862	207.87
910.035	232.29
910.208	223.96
910.381	220.47
910.554	305.52
910.727	238.29
910.9	195.09
911.073	224.34
911.246	253.99
911.419	244.49
911.592	249.72
911.765	227.25
911.938	202.84
912.11	255.92
912.283	219.11
912.456	259.99
912.629	236.74
912.802	223.37
912.974	201.09
913.147	179.01
913.32	172.61
913.493	185.21
913.665	215.24
913.838	195.47
914.01	197.99
914.183	194.89
914.356	159.83
914.528	212.52
914.701	261.16
914.873	242.94
915.046	191.02
915.218	189.08
915.391	153.82
915.563	162.15
915.736	203.42
915.908	215.24
916.081	190.05
916.253	174.36
916.425	211.56
916.598	219.5
916.77	205.16
916.942	182.69
917.115	104.8
917.287	221.82
917.459	152.66
917.632	178.81
917.804	142
917.976	185.59
918.148	210.97
918.32	184.04
918.493	223.76
918.665	248.37
918.837	175.52
919.009	262.9
919.181	240.81
919.353	199.93
919.525	199.35
919.697	201.09
919.869	186.95
920.041	248.17
920.213	284.79
920.385	204
920.557	173.58
920.729	221.63
920.901	226.47
921.073	200.51
921.244	191.79
921.416	243.14
921.588	214.46
921.76	192.37
921.932	267.94
922.103	208.84
922.275	204.19
922.447	206.52
922.619	139.68
922.79	215.62
922.962	168.16
923.134	216.01
923.305	165.64
923.477	141.42
923.648	158.86
923.82	176.49
923.991	135.41
924.163	128.44
924.335	182.49
924.506	138.51
924.677	213.3
924.849	144.91
925.02	174.55
925.192	208.65
925.363	181.14
925.535	195.28
925.706	171.06
925.877	194.89
926.049	141.81
926.22	164.67
926.391	167.38
926.562	204.97
926.734	138.13
926.905	200.51
927.076	148.98
927.247	170.29
927.419	123.21
927.59	132.7
927.761	127.86
927.932	145.68
928.103	152.66
928.274	119.91
928.445	115.26
928.616	143.94
928.787	130.38
928.958	157.89
929.129	130.57
929.3	134.44
929.471	114.49
929.642	68.18
929.813	50.94
929.984	114.68
930.155	58.3
930.326	109.84
930.496	63.15
930.667	54.23
930.838	29.43
931.009	23.04
931.18	46.87
931.35	63.73
931.521	83.3
931.692	24.98
931.863	15.48
932.033	54.23
932.204	41.83
932.374	57.33
932.545	18.39
932.716	76.13
932.886	65.47
933.057	13.93
933.227	4.05
933.398	83.1
933.568	23.23
933.739	0.37
933.909	3.08
934.08	62.95
934.25	-47.48
934.421	-4.28
934.591	5.02
934.761	3.47
934.932	-37.41
935.102	17.03
935.272	-20.94
935.443	12.77
935.613	17.42
935.783	4.05
935.953	-6.6
936.123	124.18
936.294	-10.87
936.464	3.47
936.634	29.24
936.804	-10.48
936.974	-25.4
937.144	20.52
937.314	17.23
937.484	-10.87
937.655	-22.49
937.825	36.8
937.995	-1.95
938.165	43.58
938.334	-5.83
938.504	15.87
938.674	16.65
938.844	18.39
939.014	41.64
939.184	24.4
939.354	43.58
939.524	59.27
939.694	20.71
939.863	30.21
940.033	79.42
940.203	67.21
940.373	43.58
940.542	57.91
940.712	37.96
940.882	51.13
941.051	73.22
941.221	45.71
941.391	57.53
941.56	14.32
941.73	12.96
941.899	101.89
942.069	33.11
942.238	38.93
942.408	33.31
942.577	84.46
942.747	65.08
942.916	-7.18
943.086	28.46
943.255	30.6
943.425	42.22
943.594	-7.77
943.763	-17.65
943.933	-12.61
944.102	-44.97
944.271	6.96
944.441	30.21
944.61	-8.93
944.779	5.02
944.948	97.83
945.117	-7.77
945.287	18.78
945.456	-27.14
945.625	-19.39
945.794	36.41
945.963	13.35
946.132	32.34
946.301	2.31
946.47	46.48
946.639	-32.95
946.808	-3.12
946.977	18
947.146	66.25
947.315	-0.4
947.484	48.42
947.653	13.93
947.822	16.06
947.991	22.85
948.16	89.5
948.329	42.41
948.498	16.45
948.666	29.43
948.835	53.26
949.004	-29.47
949.173	-21.72
949.341	36.6
949.51	18.2
949.679	39.51
949.847	53.07
950.016	93.56
950.185	63.92
950.353	17.42
950.522	-22.3
950.69	37.57
950.859	16.45
951.028	38.15
951.196	4.25
951.365	14.9
951.533	1.92
951.701	35.83
951.87	49
952.038	12.96
952.207	25.56
952.375	80.39
952.543	5.6
952.712	27.88
952.88	11.41
953.048	44.74
953.217	33.11
953.385	39.7
953.553	55.01
953.721	13.16
953.89	30.79
954.058	-7.18
954.226	1.73
954.394	24.98
954.562	-10.87
954.73	13.74
954.898	8.7
955.067	59.46
955.235	0.37
955.403	47.65
955.571	80.39
955.739	43.77
955.907	4.63
956.075	17.61
956.243	9.86
956.41	63.34
956.578	-15.32
956.746	-18.42
956.914	11.61
957.082	55.2
957.25	25.56
957.418	3.08
957.585	24.98
957.753	61.98
957.921	-1.57
958.089	17.61
958.256	26.72
958.424	41.64
958.592	28.46
958.759	-3.89
958.927	43
959.095	8.9
959.262	21.1
959.43	34.28
959.597	-11.83
959.765	47.06
959.932	-9.32
960.1	47.26
960.267	32.34
960.435	-1.37
960.602	27.11
960.77	-4.47
960.937	-11.25
961.104	42.03
961.272	-18.03
961.439	-14.16
961.606	29.63
961.774	22.65
961.941	14.51
962.108	47.65
962.275	18
962.443	59.46
962.61	51.13
962.777	91.43
962.944	44.16
963.111	23.62
963.278	45.71
963.446	28.08
963.613	32.53
963.78	53.07
963.947	54.81
964.114	44.55
964.281	94.73
964.448	49
964.615	-4.67
964.782	34.86
964.949	65.66
965.116	45.32
965.282	75.74
965.449	39.7
965.616	3.67
965.783	45.71
965.95	52.1
966.117	-0.21
966.283	36.6
966.45	45.32
966.617	43.38
966.784	64.5
966.95	56.36
967.117	50.36
967.284	24.2
967.45	16.45
967.617	69.15
967.784	46.68
967.95	62.76
968.117	27.69
968.283	65.28
968.45	116.23
968.616	34.28
968.783	64.89
968.949	55.78
969.116	55.98
969.282	39.51
969.449	48.42
969.615	49.78
969.781	-20.36
969.948	42.22
970.114	-20.55
970.28	76.71
970.447	52.1
970.613	70.12
970.779	19.55
970.945	55.98
971.112	38.15
971.278	14.32
971.444	50.55
971.61	75.16
971.776	22.65
971.942	38.93
972.108	88.14
972.275	-2.15
972.441	42.41
972.607	87.75
972.773	24.59
972.939	45.71
973.105	38.15
973.271	2.12
973.437	33.31
973.602	9.48
973.768	56.17
973.934	49.2
974.1	46.48
974.266	-16.1
974.432	41.83
974.598	16.84
974.763	64.31
974.929	7.73
975.095	94.73
975.261	-5.44
975.426	19.75
975.592	46.68
975.758	83.68
975.923	-0.21
976.089	23.04
976.255	69.15
976.42	50.16
976.586	50.75
976.751	58.69
976.917	127.66
977.082	59.46
977.248	26.14
977.413	-15.13
977.579	8.31
977.744	40.28
977.91	9.67
978.075	19.94
978.24	58.5
978.406	15.87
978.571	14.51
978.736	12.58
978.902	41.64
979.067	-6.02
979.232	-10.67
979.397	46.29
979.563	82.13
979.728	21.88
979.893	39.12
980.058	-11.83
980.223	87.56
980.388	71.48
980.554	24.2
980.719	32.92
980.884	38.15
981.049	61.98
981.214	2.12
981.379	34.47
981.544	-2.92
981.709	-0.21
981.874	4.44
982.039	18
982.204	66.44
982.368	25.56
982.533	24.4
982.698	70.31
982.863	54.81
983.028	16.84
983.193	56.17
983.357	30.01
983.522	32.92
983.687	28.66
983.852	18.2
984.016	32.92
984.181	36.21
984.346	9.86
984.51	49
984.675	35.25
984.839	68.18
985.004	48.03
985.168	58.5
985.333	67.21
985.498	26.72
985.662	53.65
985.827	42.41
985.991	45.32
986.155	24.4
986.32	60.24
986.484	78.26
986.649	41.83
986.813	-37.22
986.977	36.21
987.142	37.96
987.306	16.84
987.47	-5.05
987.634	11.8
987.799	30.21
987.963	59.27
988.127	48.03
988.291	104.99
988.455	41.83
988.62	37.96
988.784	43.58
988.948	42.22
989.112	2.89
989.276	44.93
989.44	28.08
989.604	-6.41
989.768	-2.73
989.932	96.28
990.096	4.05
990.26	-17.65
990.424	-11.64
990.588	8.12
990.752	91.63
990.915	52.3
991.079	10.06
991.243	13.93
991.407	47.65
991.571	22.26
991.734	33.31
991.898	75.74
992.062	96.66
992.226	12.19
992.389	13.16
992.553	2.12
992.717	8.9
992.88	12
993.044	37.57
993.207	-14.55
993.371	24.2
993.535	52.1
993.698	35.44
993.862	60.43
994.025	51.91
994.189	41.45
994.352	29.24
994.515	33.5
994.679	47.45
994.842	20.91
995.006	66.83
995.169	1.15
995.332	-8.73
995.496	64.31
995.659	-18.81
995.822	34.86
995.985	16.26
996.149	59.85
996.312	15.48
996.475	86.59
996.638	25.17
996.801	56.95
996.964	72.83
997.128	34.08
997.291	38.93
997.454	21.68
997.617	-24.82
997.78	57.72
997.943	-5.44
998.106	61.6
998.269	18.97
998.432	4.63
998.595	26.91
998.758	-8.15
998.92	-47.68
999.083	-27.53
999.246	9.67
999.409	-3.12
999.572	-19.58
999.735	11.03
999.897	37.76
1000.06	13.55
1000.223	-19.39
1000.386	50.16
1000.548	43
1000.711	21.88
1000.874	67.02
1001.036	-33.92
1001.199	67.21
1001.361	8.51
1001.524	43.19
1001.687	50.55
1001.849	7.54
1002.012	20.71
1002.174	29.05
1002.337	28.08
1002.499	19.55
1002.661	46.1
1002.824	-23.85
1002.986	-7.18
1003.149	60.82
1003.311	2.7
1003.473	56.17
1003.636	-3.12
1003.798	43
1003.96	37.38
1004.123	24.2
1004.285	-30.24
1004.447	15.87
1004.609	-9.32
1004.771	64.89
1004.933	-16.87
1005.096	-31.21
1005.258	-35.08
1005.42	-25.59
1005.582	71.09
1005.744	14.71
1005.906	-22.3
1006.068	26.91
1006.23	-32.37
1006.392	-35.08
1006.554	-14.16
1006.716	43.19
1006.878	13.93
1007.04	-30.63
1007.202	10.64
1007.363	11.03
1007.525	27.11
1007.687	40.28
1007.849	68.76
1008.011	-46.52
1008.172	7.35
1008.334	6.57
1008.496	26.72
1008.658	-21.33
1008.819	-6.02
1008.981	-16.29
1009.143	11.41
1009.304	4.25
1009.466	24.4
1009.627	31.56
1009.789	101.51
1009.95	17.61
1010.112	1.73
1010.273	26.91
1010.435	1.92
1010.596	3.47
1010.758	-21.52
1010.919	-12.42
1011.081	-19.97
1011.242	16.26
1011.403	36.6
1011.565	0.57
1011.726	9.09
1011.887	-33.34
1012.049	-1.37
1012.21	52.49
1012.371	82.52
1012.532	-37.02
1012.693	17.03
1012.855	22.85
1013.016	28.85
1013.177	35.44
1013.338	12.19
1013.499	45.32
1013.66	25.75
1013.821	33.7
1013.982	33.7
1014.143	15.48
1014.304	-11.06
1014.465	10.25
1014.626	26.33
1014.787	0.37
1014.948	84.85
1015.109	-34.7
1015.27	20.91
1015.431	-18.62
1015.592	-0.21
1015.752	34.28
1015.913	31.18
1016.074	24.98
1016.235	11.61
1016.395	32.73
1016.556	5.99
1016.717	-1.57
1016.877	45.71
1017.038	-13.58
1017.199	14.9
1017.359	-1.18
1017.52	-4.47
1017.681	-12.03
1017.841	6.96
1018.002	-2.34
1018.162	-4.08
1018.323	70.9
1018.483	5.8
1018.644	8.12
1018.804	-1.76
1018.964	-24.62
1019.125	-3.31
1019.285	5.8
1019.446	-20.17
1019.606	-24.23
1019.766	-26.75
1019.926	33.11
1020.087	-8.73
1020.247	-13.38
1020.407	30.98
1020.567	8.51
1020.728	-12.8
1020.888	-17.65
1021.048	1.15
1021.208	-5.44
1021.368	-14.93
1021.528	42.61
1021.688	39.12
1021.848	14.9
1022.008	16.45
1022.168	-8.54
1022.328	3.47
1022.488	37.96
1022.648	-10.87
1022.808	18.97
1022.968	37.18
1023.128	-31.21
1023.288	11.8
1023.448	-0.79
1023.608	1.34
1023.767	12
1023.927	-22.49
1024.087	-39.93
1024.247	-20.17
1024.406	-17.07
1024.566	-10.28
1024.726	-15.71
1024.885	-14.93
1025.045	21.1
1025.205	-8.35
1025.364	-6.02
1025.524	31.76
1025.683	0.95
1025.843	8.12
1026.003	5.02
1026.162	69.93
1026.321	45.51
1026.481	12.58
1026.64	-13.97
1026.8	-3.12
1026.959	-0.21
1027.119	22.26
1027.278	-10.48
1027.437	-8.35
1027.597	16.65
1027.756	7.93
1027.915	-4.08
1028.074	23.62
1028.234	12
1028.393	15.1
1028.552	-9.51
1028.711	-45.16
1028.87	21.49
1029.03	-14.35
1029.189	9.48
1029.348	-60.85
1029.507	-10.28
1029.666	6.77
1029.825	-39.15
1029.984	-19.78
1030.143	8.9
1030.302	-32.18
1030.461	-49.42
1030.62	-5.83
1030.779	35.44
1030.938	0.18
1031.097	-27.14
1031.255	54.23
1031.414	49
1031.573	43.96
1031.732	-46.13
1031.891	6.96
1032.049	43
1032.208	11.61
1032.367	-27.53
1032.525	-25.59
1032.684	-32.37
1032.843	-21.72
1033.001	-44.97
1033.16	129.99
1033.319	40.86
1033.477	29.43
1033.636	11.61
1033.794	-21.91
1033.953	18.97
1034.111	5.22
1034.27	-36.83
1034.428	18.39
1034.587	-26.17
1034.745	20.91
1034.903	8.31
1035.062	5.41
1035.22	-37.02
1035.378	5.02
1035.537	-24.43
1035.695	22.65
1035.853	-10.28
1036.011	40.09
1036.17	13.55
1036.328	-47.48
1036.486	21.49
1036.644	-1.76
1036.802	-89.91
1036.96	-25.4
1037.119	-10.87
1037.277	-5.25
1037.435	-38.18
1037.593	-55.43
1037.751	5.8
1037.909	25.95
1038.067	25.95
