Data from oakcork_FLMT105791__262__17-34-08-053.txt Node

Date: Mon Mar 20 17:34:08 GMT 2023
User: antho
Spectrometer: FLMT10579
Trigger mode: 0
Integration Time (sec): 1.000000E-1
Scans to average: 10
Electric dark correction enabled: true
Nonlinearity correction enabled: false
Boxcar width: 0
XAxis mode: Wavelengths
Number of Pixels in Spectrum: 3648
>>>>>Begin Spectral Data<<<<<
345.248	-140.16
345.464	-140.16
345.681	-140.16
345.898	-176.39
346.114	-139.38
346.331	-43.67
346.548	16
346.764	-10.74
346.981	2.05
347.197	-25.27
347.414	27.04
347.631	-21.2
347.847	68.12
348.064	3.99
348.28	19.1
348.497	-27.4
348.713	-8.02
348.93	49.52
349.146	28.59
349.363	15.81
349.579	-1.24
349.796	16
350.012	-12.29
350.229	9.22
350.445	8.06
350.661	-14.81
350.878	-2.21
351.094	26.46
351.311	21.23
351.527	3.99
351.743	1.66
351.96	39.44
352.176	44.87
352.392	31.5
352.609	36.15
352.825	-12.87
353.041	30.34
353.257	-0.86
353.474	30.73
353.69	11.54
353.906	1.86
354.122	-9.77
354.339	41.19
354.555	7.67
354.771	3.79
354.987	70.64
355.203	52.62
355.42	-13.64
355.636	-4.73
355.852	10.38
356.068	30.73
356.284	-18.1
356.5	68.31
356.716	26.08
356.932	7.67
357.148	43.12
357.364	19.68
357.58	26.85
357.796	42.74
358.012	58.43
358.228	30.14
358.444	-62.47
358.66	53.59
358.876	55.33
359.092	-0.47
359.308	60.56
359.524	19.1
359.74	4.38
359.956	-4.92
360.172	29.56
360.388	44.87
360.604	7.09
360.819	90.21
361.035	49.91
361.251	19.29
361.467	-26.24
361.683	39.83
361.898	27.63
362.114	17.74
362.33	3.41
362.546	36.92
362.762	23.36
362.977	16.97
363.193	16.19
363.409	46.81
363.624	-6.86
363.84	0.11
364.056	7.48
364.271	24.33
364.487	35.57
364.703	31.11
364.918	-23.91
365.134	0.31
365.35	-8.02
365.565	92.14
365.781	14.06
365.996	42.93
366.212	85.17
366.427	30.73
366.643	-5.51
366.858	17.36
367.074	-5.7
367.289	62.89
367.505	67.34
367.72	-3.37
367.936	10.38
368.151	46.81
368.367	25.49
368.582	38.28
368.798	4.18
369.013	53.01
369.228	-0.08
369.444	28.01
369.659	61.53
369.874	57.85
370.09	74.9
370.305	-28.76
370.52	-6.67
370.736	63.86
370.951	34.21
371.166	54.36
371.381	72.19
371.597	26.08
371.812	-18.87
372.027	-8.22
372.242	16
372.458	84.59
372.673	13.48
372.888	-8.02
373.103	56.11
373.318	91.17
373.533	57.85
373.749	44.67
373.964	-13.45
374.179	62.69
374.394	-16.94
374.609	75.48
374.824	-15
375.039	67.54
375.254	12.71
375.469	76.26
375.684	61.92
375.899	35.57
376.114	35.18
376.329	28.4
376.544	40.8
376.759	77.81
376.974	3.99
377.189	5.93
377.404	10.19
377.619	59.4
377.834	-27.21
378.049	-15.58
378.264	16.78
378.478	11.54
378.693	5.15
378.908	46.42
379.123	11.74
379.338	59.98
379.553	38.67
379.767	12.51
379.982	50.87
380.197	46.03
380.412	11.93
380.626	51.65
380.841	94.66
381.056	47.19
381.271	67.34
381.485	16.39
381.7	-8.02
381.915	49.71
382.129	4.18
382.344	34.99
382.559	24.72
382.773	64.63
382.988	-8.02
383.202	36.15
383.417	15.81
383.632	128.57
383.846	37.89
384.061	56.11
384.275	34.21
384.49	38.47
384.704	45.26
384.919	58.62
385.133	11.54
385.348	42.74
385.562	-5.51
385.777	55.91
385.991	23.17
386.206	11.74
386.42	14.64
386.634	57.27
386.849	49.13
387.063	16
387.277	5.34
387.492	29.56
387.706	1.28
387.92	3.79
388.135	42.74
388.349	29.76
388.563	17.74
388.778	48.16
388.992	59.59
389.206	48.36
389.42	117.14
389.635	27.24
389.849	49.91
390.063	68.12
390.277	43.32
390.491	115.78
390.706	48.36
390.92	74.71
391.134	48.74
391.348	81.1
391.562	-15.19
391.776	34.02
391.99	27.63
392.205	85.56
392.419	17.55
392.633	41.57
392.847	72.96
393.061	35.18
393.275	105.51
393.489	31.89
393.703	46.61
393.917	63.66
394.131	4.38
394.345	78.97
394.559	70.64
394.773	48.36
394.986	62.31
395.2	46.61
395.414	72.96
395.628	24.53
395.842	38.09
396.056	55.33
396.27	-3.37
396.484	33.83
396.697	60.95
396.911	86.52
397.125	44.87
397.339	98.54
397.553	62.69
397.766	111.91
397.98	88.46
398.194	83.81
398.408	21.23
398.621	93.5
398.835	76.45
399.049	71.99
399.262	104.74
399.476	60.37
399.69	51.65
399.903	142.71
400.117	67.73
400.331	70.83
400.544	22.2
400.758	172.35
400.971	62.89
401.185	93.5
401.398	51.07
401.612	119.46
401.826	85.17
402.039	75.29
402.253	42.54
402.466	87.69
402.68	50.87
402.893	82.07
403.106	71.02
403.32	78
403.533	93.11
403.747	75.67
403.96	83.81
404.174	87.49
404.387	22.39
404.6	69.47
404.814	98.54
405.027	75.48
405.24	48.94
405.454	20.26
405.667	97.57
405.88	12.51
406.094	89.62
406.307	102.41
406.52	101.06
406.733	14.26
406.947	47.97
407.16	142.52
407.373	107.06
407.586	47.77
407.799	31.5
408.012	110.16
408.226	80.91
408.439	119.46
408.652	35.76
408.865	90.59
409.078	105.32
409.291	83.42
409.504	49.13
409.717	89.24
409.93	71.41
410.143	79.55
410.357	28.4
410.57	26.85
410.783	72.19
410.996	102.99
411.209	78.97
411.421	110.74
411.634	85.56
411.847	53.97
412.06	66.96
412.273	100.67
412.486	92.92
412.699	132.25
412.912	51.07
413.125	93.11
413.338	69.47
413.55	114.42
413.763	59.98
413.976	99.7
414.189	68.7
414.402	80.52
414.615	141.94
414.827	58.82
415.04	108.22
415.253	107.06
415.466	123.34
415.678	175.07
415.891	78.97
416.104	102.99
416.316	79.55
416.529	73.16
416.742	83.04
416.954	114.04
417.167	91.37
417.38	78.58
417.592	102.8
417.805	77.81
418.017	38.47
418.23	111.13
418.442	63.47
418.655	89.62
418.868	78.77
419.08	134.96
419.293	136.12
419.505	115.39
419.718	92.53
419.93	113.65
420.142	91.37
420.355	124.69
420.567	127.02
420.78	116.17
420.992	87.11
421.205	136.51
421.417	63.86
421.629	66.37
421.842	83.81
422.054	32.47
422.266	111.32
422.479	142.71
422.691	71.61
422.903	114.62
423.115	86.14
423.328	103.19
423.54	96.79
423.752	86.72
423.964	88.46
424.177	96.79
424.389	80.13
424.601	191.54
424.813	110.16
425.025	118.69
425.238	111.91
425.45	67.15
425.662	119.07
425.874	399.43
426.086	97.37
426.298	124.69
426.51	121.4
426.722	87.69
426.934	84.59
427.146	130.7
427.358	59.4
427.57	118.49
427.782	105.12
427.994	106.48
428.206	91.17
428.418	40.99
428.63	90.4
428.842	127.99
429.054	103.19
429.266	153.56
429.478	88.27
429.69	80.52
429.902	87.11
430.114	113.65
430.325	109.77
430.537	66.37
430.749	79.94
430.961	25.49
431.173	72.38
431.384	119.07
431.596	33.24
431.808	82.65
432.02	119.85
432.231	129.73
432.443	136.9
432.655	113.46
432.867	89.04
433.078	136.7
433.29	149.1
433.502	164.41
433.713	139.03
433.925	109
434.136	167.7
434.348	88.27
434.56	74.71
434.771	210.33
434.983	63.08
435.194	95.63
435.406	103.96
435.617	142.9
435.829	167.32
436.04	128.76
436.252	169.45
436.463	177.39
436.675	150.85
436.886	146.2
437.098	142.71
437.309	185.92
437.521	132.25
437.732	150.27
437.943	128.37
438.155	149.1
438.366	87.3
438.578	202.58
438.789	151.43
439	154.34
439.211	125.85
439.423	134.57
439.634	128.76
439.845	149.69
440.057	142.9
440.268	164.41
440.479	100.09
440.69	157.44
440.902	119.27
441.113	135.35
441.324	148.91
441.535	145.04
441.746	183.98
441.957	125.08
442.168	145.42
442.38	153.37
442.591	157.24
442.802	119.66
443.013	115.39
443.224	177
443.435	141.55
443.646	149.69
443.857	134.96
444.068	108.42
444.279	112.1
444.49	218.85
444.701	139.03
444.912	238.81
445.123	160.15
445.334	166.54
445.545	163.05
445.756	158.6
445.967	145.42
446.178	164.99
446.388	199.87
446.599	168.09
446.81	195.8
447.021	159.37
447.232	181.07
447.443	211.1
447.653	133.41
447.864	200.06
448.075	167.7
448.286	196.77
448.496	168.48
448.707	184.75
448.918	140.39
449.129	256.05
449.339	157.82
449.55	192.7
449.761	157.63
449.971	214.01
450.182	172.35
450.393	191.92
450.603	168.48
450.814	203.55
451.024	209.17
451.235	190.18
451.446	223.5
451.656	231.25
451.867	170.03
452.077	187.47
452.288	254.7
452.498	235.32
452.709	175.26
452.919	195.22
453.13	187.08
453.34	205.87
453.55	147.17
453.761	212.46
453.971	217.3
454.182	229.51
454.392	189.21
454.602	271.75
454.813	188.24
455.023	247.92
455.233	159.18
455.444	218.47
455.654	172.35
455.864	192.7
456.075	195.22
456.285	178.36
456.495	183.79
456.705	219.43
456.916	235.13
457.126	267.29
457.336	197.93
457.546	147.55
457.756	177.39
457.967	258.18
458.177	179.14
458.387	222.73
458.597	173.52
458.807	202.58
459.017	192.7
459.227	202.97
459.437	191.73
459.647	228.15
459.857	235.13
460.068	170.22
460.278	225.25
460.488	207.62
460.698	267.87
460.908	195.99
461.117	172.16
461.327	176.23
461.537	214.98
461.747	221.95
461.957	237.07
462.167	315.92
462.377	255.08
462.587	199.48
462.797	249.85
463.007	236.87
463.216	226.99
463.426	250.24
463.636	259.93
463.846	190.37
464.056	193.86
464.265	241.72
464.475	210.52
464.685	232.03
464.895	245.2
465.104	218.66
465.314	247.72
465.524	214.59
465.733	199.48
465.943	276.98
466.153	286.08
466.362	259.54
466.572	207.42
466.782	224.28
466.991	249.47
467.201	286.08
467.41	182.04
467.62	241.91
467.829	229.51
468.039	280.27
468.249	251.79
468.458	245.59
468.668	256.44
468.877	260.12
469.086	278.33
469.296	264.58
469.505	219.82
469.715	269.03
469.924	268.45
470.134	298.48
470.343	331.61
470.552	252.95
470.762	232.03
470.971	240.75
471.18	276.98
471.39	263.03
471.599	232.61
471.808	289.18
472.018	236.87
472.227	326.58
472.436	300.03
472.645	252.57
472.855	232.42
473.064	328.13
473.273	298.29
473.482	295.19
473.691	301
473.901	311.27
474.11	269.03
474.319	371.33
474.528	280.27
474.737	347.7
474.946	323.86
475.155	304.3
475.364	320.38
475.573	302.94
475.783	308.56
475.992	324.06
476.201	363.2
476.41	303.33
476.619	259.93
476.828	321.93
477.037	281.43
477.245	296.74
477.454	357
477.663	293.25
477.872	309.72
478.081	365.91
478.29	305.85
478.499	383.93
478.708	331.23
478.917	399.43
479.125	313.21
479.334	319.02
479.543	312.63
479.752	376.76
479.961	361.06
480.169	372.5
480.378	362.81
480.587	450.96
480.796	381.99
481.004	352.15
481.213	397.88
481.422	381.6
481.63	367.26
481.839	375.6
482.048	442.05
482.256	373.08
482.465	364.16
482.674	399.23
482.882	408.73
483.091	423.84
483.299	391.29
483.508	397.88
483.716	386.64
483.925	390.9
484.134	385.67
484.342	401.56
484.551	410.28
484.759	403.3
484.967	408.14
485.176	452.71
485.384	414.93
485.593	417.25
485.801	388.77
486.01	388.77
486.218	366.68
486.426	346.34
486.635	369.01
486.843	361.65
487.051	383.15
487.26	375.01
487.468	391.87
487.676	403.88
487.885	380.05
488.093	418.99
488.301	417.44
488.509	394.97
488.717	448.64
488.926	416.48
489.134	401.17
489.342	436.24
489.55	398.07
489.758	446.31
489.967	419.77
490.175	538.92
490.383	423.26
490.591	505.6
490.799	419.58
491.007	480.02
491.215	466.66
491.423	443.02
491.631	455.81
491.839	460.65
492.047	467.82
492.255	428.49
492.463	408.53
492.671	448.83
492.879	502.69
493.087	459.1
493.295	469.56
493.503	485.06
493.711	482.93
493.919	530.59
494.127	498.24
494.334	501.34
494.542	447.09
494.75	493.2
494.958	500.17
495.166	544.35
495.374	497.27
495.581	516.45
495.789	479.64
495.997	539.31
496.205	475.76
496.412	505.6
496.62	477.89
496.828	490.1
497.035	492.04
497.243	509.67
497.451	496.69
497.658	535.82
497.866	476.54
498.074	570.7
498.281	476.15
498.489	579.22
498.696	491.84
498.904	499.01
499.112	504.05
499.319	560.43
499.527	503.86
499.734	548.42
499.942	489.32
500.149	496.88
500.357	529.04
500.564	497.07
500.771	549.97
500.979	493.39
501.186	510.64
501.394	546.87
501.601	526.33
501.808	555.01
502.016	491.07
502.223	524.78
502.43	518.77
502.638	524.39
502.845	499.59
503.052	604.6
503.26	499.79
503.467	570.12
503.674	493.78
503.881	549.97
504.089	599.76
504.296	564.5
504.503	516.84
504.71	525.94
504.917	501.14
505.125	570.89
505.332	512.38
505.539	549.58
505.746	595.3
505.953	591.04
506.16	567.4
506.367	583.1
506.574	623.98
506.781	608.87
506.988	568.76
507.195	588.33
507.402	575.15
507.609	602.86
507.816	553.65
508.023	553.46
508.23	549.58
508.437	491.26
508.644	615.26
508.851	617.97
509.058	613.32
509.265	559.46
509.472	627.66
509.679	683.85
509.885	557.33
510.092	608.48
510.299	587.55
510.506	635.99
510.713	592.98
510.92	616.42
511.126	610.42
511.333	638.7
511.54	628.24
511.746	669.7
511.953	631.73
512.16	658.08
512.367	595.5
512.573	620.88
512.78	643.94
512.987	613.52
513.193	646.26
513.4	579.61
513.606	614.29
513.813	621.27
514.02	616.23
514.226	643.74
514.433	661.76
514.639	588.52
514.846	626.5
515.052	624.37
515.259	615.45
515.465	645.49
515.672	627.85
515.878	718.53
516.085	653.62
516.291	661.57
516.497	609.64
516.704	605.77
516.91	603.64
517.117	580.19
517.323	547.84
517.529	590.46
517.736	599.37
517.942	601.89
518.148	598.79
518.354	629.21
518.561	632.31
518.767	610.03
518.973	628.05
519.179	669.9
519.386	626.5
519.592	608.29
519.798	621.85
520.004	684.04
520.21	643.74
520.417	696.44
520.623	723.57
520.829	708.45
521.035	677.45
521.241	717.17
521.447	691.6
521.653	810.36
521.859	673.38
522.065	710.78
522.271	789.25
522.477	739.26
522.683	754.76
522.889	754.95
523.095	719.88
523.301	716.2
523.507	708.45
523.713	723.95
523.919	710.2
524.125	786.73
524.331	722.4
524.537	798.16
524.742	775.3
524.948	803.97
525.154	782.85
525.36	881.28
525.566	749.91
525.772	835.36
525.977	744.3
526.183	812.3
526.389	815.01
526.595	770.65
526.8	736.16
527.006	712.72
527.212	693.53
527.417	698.57
527.623	700.32
527.829	757.47
528.034	761.93
528.24	798.93
528.446	751.66
528.651	833.61
528.857	824.31
529.062	856.09
529.268	820.63
529.473	808.62
529.679	797.38
529.884	893.87
530.09	856.67
530.295	872.94
530.501	846.59
530.706	841.75
530.912	812.11
531.117	868.88
531.323	833.81
531.528	886.31
531.733	854.93
531.939	864.61
532.144	869.26
532.35	873.91
532.555	876.82
532.76	858.99
532.966	885.15
533.171	875.46
533.376	850.08
533.581	812.11
533.787	854.34
533.992	868.29
534.197	919.44
534.402	856.86
534.607	871.59
534.813	951.8
535.018	859.19
535.223	917.51
535.428	888.25
535.633	904.72
535.838	913.24
536.043	874.49
536.249	985.51
536.454	855.89
536.659	896.39
536.864	859.58
537.069	889.22
537.274	907.82
537.479	897.16
537.684	948.51
537.889	867.71
538.094	967.11
538.299	910.14
538.504	945.21
538.708	932.81
538.913	949.67
539.118	900.84
539.323	934.17
539.528	908.79
539.733	927.97
539.938	947.54
540.142	976.79
540.347	890.58
540.552	872.17
540.757	915.18
540.962	904.91
541.166	868.29
541.371	893.29
541.576	937.46
541.781	808.62
541.985	926.61
542.19	926.61
542.395	968.27
542.599	987.64
542.804	959.94
543.008	1021.94
543.213	905.49
543.418	891.74
543.622	929.52
543.827	903.17
544.031	958.97
544.236	1013.8
544.44	933.78
544.645	1008.18
544.849	935.72
545.054	984.16
545.258	1034.34
545.463	1029.69
545.667	934.36
545.872	1001.59
546.076	922.74
546.281	999.85
546.485	936.3
546.689	978.15
546.894	992.49
547.098	980.67
547.302	938.62
547.507	989.58
547.711	982.41
547.915	1032.79
548.119	907.43
548.324	965.75
548.528	1013.6
548.732	959.74
548.936	989.39
549.141	1015.35
549.345	962.46
549.549	992.1
549.753	986.48
549.957	1058.17
550.161	1029.88
550.366	1015.15
550.57	956.06
550.774	992.1
550.978	977.96
551.182	1009.92
551.386	985.9
551.59	951.61
551.794	968.07
551.998	951.22
552.202	972.53
552.406	956.45
552.61	981.64
552.814	999.46
553.018	1041.12
553.222	960.71
553.426	990.94
553.63	1077.93
553.833	986.29
554.037	958.39
554.241	1011.67
554.445	973.5
554.649	995.01
554.853	973.89
555.056	1028.72
555.26	1043.44
555.464	952.19
555.668	1004.5
555.871	1019.61
556.075	1023.87
556.279	961.87
556.483	966.33
556.686	979.31
556.89	1001.01
557.094	1003.92
557.297	916.34
557.501	998.49
557.704	917.31
557.908	1003.72
558.112	926.61
558.315	1022.32
558.519	967.69
558.722	970.4
558.926	948.31
559.129	907.04
559.333	886.51
559.536	915.18
559.74	899.88
559.943	870.81
560.147	882.63
560.35	933.78
560.553	921.19
560.757	882.44
560.96	980.67
561.164	882.05
561.367	970.01
561.57	895.61
561.774	956.26
561.977	912.86
562.18	889.22
562.384	1020.97
562.587	934.94
562.79	883.99
562.993	934.36
563.197	935.91
563.4	979.31
563.603	973.69
563.806	1000.04
564.009	936.11
564.212	963.23
564.416	870.62
564.619	915.37
564.822	884.96
565.025	951.8
565.228	908.98
565.431	928.55
565.634	848.34
565.837	888.64
566.04	860.54
566.243	869.07
566.446	781.5
566.649	900.07
566.852	815.01
567.055	863.06
567.258	873.72
567.461	939.59
567.664	922.54
567.867	830.51
568.07	865.19
568.273	910.92
568.475	911.69
568.678	836.71
568.881	846.01
569.084	852.79
569.287	778.2
569.489	804.36
569.692	896.19
569.895	867.91
570.098	778.2
570.3	789.25
570.503	760.96
570.706	766.38
570.909	771.42
571.111	767.74
571.314	763.28
571.516	775.3
571.719	801.06
571.922	798.16
572.124	764.83
572.327	801.26
572.529	754.95
572.732	723.57
572.935	786.15
573.137	839.23
573.34	771.81
573.542	804.55
573.745	787.5
573.947	795.06
574.15	797.58
574.352	757.47
574.554	841.56
574.757	765.03
574.959	756.89
575.162	749.72
575.364	759.99
575.566	817.15
575.769	737.13
575.971	758.44
576.173	665.44
576.376	761.93
576.578	815.4
576.78	817.53
576.982	681.91
577.185	749.72
577.387	694.12
577.589	694.7
577.791	745.07
577.993	773.36
578.196	731.12
578.398	744.1
578.6	752.24
578.802	685.01
579.004	701.87
579.206	719.69
579.408	746.23
579.61	704.58
579.812	780.14
580.014	734.61
580.216	703.61
580.418	709.62
580.62	696.25
580.822	703.8
581.024	730.93
581.226	770.26
581.428	680.36
581.63	788.86
581.832	687.33
582.034	788.66
582.236	722.02
582.438	752.82
582.64	781.3
582.841	781.88
583.043	826.83
583.245	766.19
583.447	751.85
583.649	743.33
583.85	775.49
584.052	777.04
584.254	699.93
584.456	786.34
584.657	703.22
584.859	730.93
585.061	737.51
585.262	733.06
585.464	681.72
585.666	773.16
585.867	721.43
586.069	784.21
586.27	735.96
586.472	747.4
586.674	686.56
586.875	700.32
587.077	720.08
587.278	731.9
587.48	705.74
587.681	816.18
587.883	723.37
588.084	667.57
588.285	690.63
588.487	723.57
588.688	703.8
588.89	666.99
589.091	617.59
589.292	661.57
589.494	652.27
589.695	635.22
589.896	573.6
590.098	572.05
590.299	624.75
590.5	597.82
590.702	614.29
590.903	615.84
591.104	690.63
591.305	662.73
591.507	708.26
591.708	673.58
591.909	641.42
592.11	692.57
592.311	656.92
592.512	651.3
592.714	614.29
592.915	616.04
593.116	622.62
593.317	660.79
593.518	624.95
593.719	639.48
593.92	675.13
594.121	700.9
594.322	651.1
594.523	685.2
594.724	623.98
594.925	635.8
595.126	672.8
595.327	676.68
595.528	649.75
595.729	678.23
595.929	649.75
596.13	660.02
596.331	641.03
596.532	650.13
596.733	711.17
596.934	682.68
597.135	685.2
597.335	642
597.536	595.69
597.737	686.75
597.938	638.7
598.138	689.27
598.339	658.08
598.54	642.97
598.74	625.53
598.941	673.19
599.142	695.08
599.342	671.06
599.543	651.1
599.744	664.67
599.944	657.69
600.145	654.59
600.345	643.16
600.546	719.5
600.746	672.8
600.947	704.19
601.147	655.37
601.348	700.9
601.548	636.19
601.749	684.23
601.949	635.8
602.15	636.38
602.35	662.92
602.551	686.17
602.751	620.1
602.951	637.54
603.152	575.35
603.352	693.34
603.552	655.17
603.753	661.37
603.953	684.43
604.153	662.53
604.354	648.97
604.554	659.24
604.754	656.33
604.954	598.99
605.155	677.84
605.355	638.9
605.555	691.21
605.755	683.85
605.955	646.26
606.155	673.77
606.356	661.18
606.556	687.33
606.756	669.32
606.956	589.1
607.156	690.63
607.356	604.41
607.556	671.25
607.756	644.52
607.956	704
608.156	643.74
608.356	607.32
608.556	680.55
608.756	648.78
608.956	629.4
609.156	656.92
609.356	616.62
609.556	618.17
609.755	643.74
609.955	630.18
610.155	635.02
610.355	631.73
610.555	598.02
610.755	644.32
610.954	566.24
611.154	626.89
611.354	678.23
611.554	611
611.753	581.94
611.953	584.07
612.153	665.83
612.352	641.03
612.552	597.24
612.752	556.17
612.951	621.46
613.151	617.39
613.351	574.38
613.55	596.47
613.75	630.95
613.949	607.32
614.149	615.84
614.348	580.97
614.548	556.75
614.747	553.84
614.947	546.48
615.146	525.17
615.346	610.03
615.545	597.82
615.745	615.26
615.944	609.45
616.144	598.79
616.343	584.45
616.542	574.19
616.742	586.2
616.941	584.84
617.14	575.15
617.34	556.75
617.539	585.23
617.738	552.68
617.938	636.96
618.137	591.82
618.336	517.03
618.535	608.87
618.734	572.83
618.934	614.87
619.133	580.97
619.332	608.87
619.531	549
619.73	576.7
619.929	615.65
620.128	616.81
620.328	668.35
620.527	573.02
620.726	585.42
620.925	582.9
621.124	540.47
621.323	611.58
621.522	517.22
621.721	537.57
621.92	532.14
622.119	599.95
622.318	516.64
622.517	539.51
622.715	542.22
622.914	501.34
623.113	546.09
623.312	510.64
623.511	570.89
623.71	552.29
623.909	534.08
624.107	609.25
624.306	519.16
624.505	510.83
624.704	512.57
624.902	532.14
625.101	576.32
625.3	564.5
625.499	494.17
625.697	524.97
625.896	513.74
626.095	528.07
626.293	505.41
626.492	516.84
626.69	551.13
626.889	506.96
627.088	558.49
627.286	504.05
627.485	479.44
627.683	507.15
627.882	523.42
628.08	457.36
628.279	512.96
628.477	602.67
628.676	454.84
628.874	519.74
629.073	464.91
629.271	470.34
629.469	505.02
629.668	468.59
629.866	487.19
630.065	491.26
630.263	518.58
630.461	506.76
630.66	528.07
630.858	528.66
631.056	519.16
631.254	536.02
631.453	458.33
631.651	534.66
631.849	518.97
632.047	510.64
632.245	527.11
632.444	523.62
632.642	541.83
632.84	568.76
633.038	464.14
633.236	500.56
633.434	483.51
633.632	481.77
633.83	469.76
634.028	519.16
634.227	464.14
634.425	554.04
634.623	503.86
634.821	478.86
635.019	498.04
635.216	492.62
635.414	504.63
635.612	525.36
635.81	499.79
636.008	538.34
636.206	499.21
636.404	498.43
636.602	467.24
636.8	513.93
636.997	511.02
637.195	525.36
637.393	500.56
637.591	574.19
637.789	498.43
637.986	499.79
638.184	532.34
638.382	544.54
638.58	539.7
638.777	550.94
638.975	504.44
639.173	487.19
639.37	517.61
639.568	505.02
639.765	531.56
639.963	520.71
640.161	560.62
640.358	552.68
640.556	486.61
640.753	463.75
640.951	471.11
641.148	524.01
641.346	500.56
641.543	519.74
641.741	511.41
641.938	443.41
642.136	469.56
642.333	487.19
642.531	534.47
642.728	527.49
642.925	496.49
643.123	486.81
643.32	505.6
643.517	474.6
643.715	487.97
643.912	466.08
644.109	506.37
644.306	497.27
644.504	460.26
644.701	502.89
644.898	502.69
645.095	496.11
645.293	485.45
645.49	487.77
645.687	525.94
645.884	492.81
646.081	447.48
646.278	483.51
646.475	464.53
646.672	462.2
646.87	495.33
647.067	480.8
647.264	499.21
647.461	443.79
647.658	405.24
647.855	503.66
648.052	459.68
648.249	366.3
648.446	455.42
648.642	434.11
648.839	428.68
649.036	421.32
649.233	396.52
649.43	394.78
649.627	383.35
649.824	412.6
650.021	422.48
650.217	432.56
650.414	439.92
650.611	453.68
650.808	448.06
651.004	458.52
651.201	461.04
651.398	487.58
651.595	439.73
651.791	418.22
651.988	469.76
652.185	410.28
652.381	456.58
652.578	426.16
652.775	427.33
652.971	429.46
653.168	441.47
653.364	475.57
653.561	377.15
653.757	398.26
653.954	427.13
654.15	415.31
654.347	484.29
654.543	404.27
654.74	387.41
654.936	399.04
655.133	402.72
655.329	407.37
655.525	406.21
655.722	432.94
655.918	366.88
656.115	450.96
656.311	386.83
656.507	338.4
656.704	313.21
656.9	340.91
657.096	342.27
657.292	338.78
657.489	422.68
657.685	397.1
657.881	365.52
658.077	365.33
658.273	382.96
658.47	446.7
658.666	396.13
658.862	405.04
659.058	357.77
659.254	419.77
659.45	380.25
659.646	383.15
659.842	410.28
660.038	456.97
660.234	387.03
660.43	413.38
660.626	454.64
660.822	434.3
661.018	420.74
661.214	414.54
661.41	341.11
661.606	427.52
661.802	450.38
661.998	375.4
662.194	390.32
662.39	420.16
662.586	407.56
662.781	413.38
662.977	437.79
663.173	462.78
663.369	427.71
663.564	399.62
663.76	444.96
663.956	373.08
664.152	456.78
664.347	365.13
664.543	395.74
664.739	405.43
664.934	338.78
665.13	340.72
665.326	413.18
665.521	427.71
665.717	359.51
665.912	382.76
666.108	318.44
666.304	378.89
666.499	381.41
666.695	312.82
666.89	382.96
667.086	419.19
667.281	411.44
667.477	447.48
667.672	389.54
667.867	386.25
668.063	376.37
668.258	360.48
668.454	377.73
668.649	461.23
668.844	383.54
669.04	394.39
669.235	347.7
669.43	358.16
669.626	313.98
669.821	357.58
670.016	333.94
670.211	337.43
670.407	336.46
670.602	360.48
670.797	379.66
670.992	412.21
671.187	339.36
671.382	393.61
671.578	357.19
671.773	391.29
671.968	310.3
672.163	358.93
672.358	416.86
672.553	357.38
672.748	346.15
672.943	423.64
673.138	352.93
673.333	371.72
673.528	351.18
673.723	357.19
673.918	358.35
674.113	323.86
674.308	451.74
674.503	383.93
674.698	378.11
674.892	350.6
675.087	387.61
675.282	378.11
675.477	325.03
675.672	357
675.867	322.12
676.061	299.26
676.256	321.35
676.451	345.56
676.646	362.42
676.84	325.41
677.035	315.92
677.23	324.25
677.424	356.8
677.619	383.35
677.814	390.71
678.008	380.25
678.203	300.61
678.397	320.76
678.592	371.72
678.787	392.64
678.981	344.6
679.176	346.15
679.37	394.78
679.565	330.26
679.759	337.23
679.954	386.06
680.148	386.25
680.342	411.44
680.537	362.42
680.731	341.3
680.926	353.9
681.12	380.05
681.314	320.38
681.509	339.36
681.703	342.27
681.897	374.82
682.092	333.94
682.286	311.85
682.48	424.61
682.674	378.89
682.869	336.07
683.063	356.03
683.257	406.01
683.451	329.48
683.645	356.8
683.839	340.72
684.034	329.48
684.228	376.95
684.422	319.99
684.616	299.84
684.81	343.43
685.004	347.7
685.198	348.28
685.392	371.53
685.586	297.71
685.78	358.74
685.974	375.01
686.168	370.36
686.362	391.87
686.556	333.16
686.75	260.32
686.944	319.41
687.138	347.11
687.331	250.05
687.525	249.66
687.719	219.43
687.913	281.05
688.107	282.79
688.301	239.2
688.494	300.03
688.688	266.13
688.882	239
689.076	221.57
689.269	278.92
689.463	339.95
689.657	281.63
689.85	243.07
690.044	285.7
690.238	293.45
690.431	282.4
690.625	298.29
690.818	305.46
691.012	298.87
691.205	286.86
691.399	273.68
691.593	303.33
691.786	359.71
691.98	344.01
692.173	380.25
692.366	324.64
692.56	337.62
692.753	385.28
692.947	306.62
693.14	378.5
693.333	381.99
693.527	315.15
693.72	349.05
693.914	363.97
694.107	326.58
694.3	354.28
694.493	362.23
694.687	388.19
694.88	319.99
695.073	384.12
695.266	363
695.46	349.44
695.653	401.56
695.846	400.98
696.039	338.4
696.232	377.73
696.425	403.3
696.618	407.95
696.812	359.51
697.005	451.93
697.198	477.31
697.391	456.78
697.584	447.48
697.777	503.86
697.97	454.26
698.163	472.28
698.356	459.1
698.549	530.01
698.742	478.09
698.935	449.99
699.127	502.89
699.32	445.93
699.513	464.72
699.706	471.31
699.899	489.13
700.092	468.21
700.285	495.14
700.477	428.49
700.67	493.01
700.863	488.16
701.056	553.07
701.248	521.1
701.441	549.19
701.634	488.74
701.826	604.02
702.019	494.75
702.212	571.47
702.404	511.22
702.597	474.6
702.79	528.85
702.982	551.52
703.175	600.92
703.367	599.95
703.56	575.54
703.752	641.42
703.945	617.97
704.137	621.46
704.33	653.04
704.522	625.34
704.715	643.16
704.907	657.69
705.1	655.37
705.292	666.41
705.484	616.04
705.677	668.73
705.869	662.34
706.061	696.05
706.254	707.1
706.446	654.4
706.638	666.8
706.831	758.83
707.023	719.3
707.215	778.2
707.407	728.99
707.599	767.55
707.792	811.14
707.984	733.83
708.176	779.17
708.368	729.57
708.56	747.98
708.752	764.25
708.944	792.93
709.136	801.06
709.329	780.33
709.521	874.3
709.713	855.12
709.905	808.62
710.097	872.17
710.289	840.39
710.481	847.56
710.672	848.53
710.864	852.41
711.056	900.46
711.248	909.37
711.44	900.07
711.632	908.01
711.824	897.36
712.016	953.74
712.207	954.71
712.399	941.72
712.591	985.32
712.783	979.89
712.975	1011.67
713.166	931.84
713.358	944.82
713.55	1018.25
713.741	1032.4
713.933	987.26
714.125	980.47
714.316	1005.08
714.508	1035.89
714.7	1037.63
714.891	1059.91
715.083	1084.71
715.274	1048.48
715.466	1050.22
715.657	1069.6
715.849	1008.57
716.04	1068.05
716.232	995.01
716.423	1056.62
716.615	992.29
716.806	1009.73
716.998	1006.05
717.189	955.87
717.381	905.69
717.572	868.29
717.763	896.78
717.955	891.93
718.146	902.39
718.337	846.98
718.528	818.31
718.72	788.47
718.911	842.72
719.102	821.41
719.293	878.95
719.485	832.45
719.676	859.19
719.867	823.15
720.058	822.38
720.249	833.23
720.44	850.08
720.632	866.55
720.823	886.51
721.014	1008.76
721.205	972.14
721.396	1047.51
721.587	1096.53
721.778	1098.85
721.969	1103.12
722.16	1153.88
722.351	1144.77
722.542	1232.54
722.733	1235.83
722.924	1155.62
723.115	1226.15
723.305	1232.35
723.496	1196.5
723.687	1150.78
723.878	1162.79
724.069	1176.16
724.26	1148.26
724.45	1149.03
724.641	1119.39
724.832	1113.77
725.023	1142.25
725.213	1144.19
725.404	1099.24
725.595	1159.3
725.785	1132.95
725.976	1157.95
726.167	1152.72
726.357	1199.02
726.548	1215.88
726.739	1177.32
726.929	1228.66
727.12	1248.23
727.31	1276.71
727.501	1215.3
727.691	1236.41
727.882	1257.73
728.072	1290.66
728.263	1276.33
728.453	1301.13
728.644	1290.66
728.834	1301.51
729.024	1266.44
729.215	1246.1
729.405	1328.06
729.596	1373.97
729.786	1369.91
729.976	1369.13
730.167	1396.06
730.357	1360.99
730.547	1346.08
730.737	1391.41
730.928	1440.24
731.118	1456.51
731.308	1405.75
731.498	1418.15
731.688	1512.31
731.879	1476.66
732.069	1536.92
732.259	1547.18
732.449	1545.44
732.639	1623.33
732.829	1617.13
733.019	1629.91
733.209	1725.82
733.399	1685.71
733.589	1738.61
733.779	1766.89
733.969	1744.81
734.159	1779.1
734.349	1834.9
734.539	1824.44
734.729	1850.98
734.919	1875.59
735.109	1909.88
735.299	1885.27
735.488	1907.75
735.678	1893.41
735.868	1880.24
736.058	1906.2
736.248	1841.29
736.437	1859.31
736.627	1845.56
736.817	1945.72
737.007	1892.44
737.196	1963.16
737.386	1884.3
737.576	1900.77
737.765	1950.18
737.955	1958.9
738.144	2049.76
738.334	1967.62
738.524	1944.75
738.713	1997.45
738.903	1984.28
739.092	2003.85
739.282	2017.6
739.471	2034.27
739.661	2005.01
739.85	2014.89
740.04	2039.88
740.229	2082.51
740.419	2137.73
740.608	2129.01
740.797	2074.18
740.987	2148.19
741.176	2143.93
741.365	2100.14
741.555	2090.84
741.744	2144.31
741.933	2143.93
742.123	2157.49
742.312	2220.65
742.501	2184.81
742.69	2236.15
742.88	2148.38
743.069	2224.72
743.258	2193.14
743.447	2237.89
743.636	2220.84
743.825	2228.98
744.014	2222.01
744.204	2254.36
744.393	2180.54
744.582	2258.04
744.771	2294.08
744.96	2213.29
745.149	2290.21
745.338	2274.9
745.527	2246.03
745.716	2287.88
745.905	2251.84
746.094	2293.69
746.283	2258.43
746.471	2302.22
746.66	2311.32
746.849	2330.12
747.038	2318.3
747.227	2267.34
747.416	2300.28
747.604	2285.94
747.793	2280.13
747.982	2279.55
748.171	2303.38
748.359	2324.5
748.548	2310.74
748.737	2320.82
748.926	2299.31
749.114	2233.05
749.303	2318.49
749.491	2289.62
749.68	2257.46
749.869	2301.06
750.057	2260.56
750.246	2249.13
750.434	2282.07
750.623	2280.13
750.811	2253.59
751	2330.5
751.188	2264.05
751.377	2314.04
751.565	2286.33
751.754	2236.92
751.942	2235.18
752.131	2281.87
752.319	2257.66
752.507	2207.48
752.696	2304.74
752.884	2333.99
753.072	2268.51
753.261	2262.5
753.449	2306.48
753.637	2216.19
753.825	2315.78
754.014	2255.33
754.202	2257.66
754.39	2303.57
754.578	2291.37
754.766	2234.21
754.955	2217.94
755.143	2298.34
755.331	2236.15
755.519	2240.99
755.707	2216.97
755.895	2241.77
756.083	2249.32
756.271	2211.35
756.459	2220.65
756.647	2279.16
756.835	2235.18
757.023	2172.41
757.211	2202.83
757.399	2179.77
757.587	2184.81
757.775	2215.42
757.963	2192.36
758.151	2207.67
758.339	2150.71
758.526	2138.11
758.714	2202.24
758.902	2071.46
759.09	2058.87
759.278	1891.47
759.465	1751.2
759.653	1503.4
759.841	1379.59
760.028	1146.13
760.216	993.07
760.404	975.24
760.591	758.63
760.779	648.39
760.967	565.27
761.154	449.41
761.342	524.78
761.529	496.49
761.717	522.07
761.905	514.12
762.092	571.47
762.28	504.63
762.467	536.79
762.655	462.01
762.842	470.92
763.029	488.94
763.217	505.21
763.404	517.03
763.592	497.07
763.779	483.12
763.966	487.97
764.154	548.61
764.341	568.95
764.528	581.55
764.716	622.82
764.903	659.43
765.09	686.75
765.277	751.08
765.465	874.69
765.652	901.23
765.839	943.86
766.026	1012.83
766.213	1060.49
766.4	1119.58
766.588	1271.68
766.775	1237.96
766.962	1354.41
767.149	1400.32
767.336	1470.85
767.523	1428.42
767.71	1536.92
767.897	1616.74
768.084	1654.33
768.271	1702.38
768.458	1715.36
768.645	1750.23
768.832	1747.91
769.019	1761.47
769.206	1758.37
769.392	1848.85
769.579	1968.39
769.766	1916.85
769.953	1888.57
770.14	1936.62
770.327	1901.94
770.513	1948.24
770.7	2024
770.887	1940.3
771.073	1978.27
771.26	1928.67
771.447	1915.11
771.634	1916.27
771.82	1997.45
772.007	1925.77
772.193	1936.04
772.38	1993.77
772.567	1950.95
772.753	1962.19
772.94	1990.87
773.126	1993.77
773.313	1999.2
773.499	2005.98
773.686	1986.8
773.872	1937.97
774.059	1958.32
774.245	1917.82
774.432	1951.34
774.618	1904.26
774.804	1970.72
774.991	1945.34
775.177	1978.08
775.363	1932.16
775.55	2005.01
775.736	1934.87
775.922	1938.55
776.109	1949.02
776.295	1935.26
776.481	1939.33
776.667	1955.02
776.853	1897.48
777.04	1916.08
777.226	1914.92
777.412	2016.44
777.598	1898.84
777.784	1906.97
777.97	1879.07
778.156	1908.52
778.342	1887.21
778.528	1872.29
778.715	1865.32
778.901	1870.74
779.087	1870.36
779.272	1855.24
779.458	1855.24
779.644	1885.66
779.83	1869.19
780.016	1914.92
780.202	1852.53
780.388	1832.19
780.574	1805.84
780.76	1806.03
780.946	1861.06
781.131	1857.76
781.317	1844.01
781.503	1804.67
781.689	1822.69
781.874	1918.79
782.06	1809.52
782.246	1857.76
782.432	1803.9
782.617	1848.66
782.803	1852.53
782.989	1763.41
783.174	1770.19
783.36	1746.55
783.545	1808.55
783.731	1799.44
783.916	1737.25
784.102	1776
784.288	1752.94
784.473	1764.57
784.659	1744.81
784.844	1817.46
785.029	1747.91
785.215	1753.53
785.4	1735.7
785.586	1821.92
785.771	1715.36
785.956	1753.91
786.142	1740.93
786.327	1698.69
786.512	1744.42
786.698	1700.83
786.883	1663.05
787.068	1712.64
787.254	1694.05
787.439	1684.75
787.624	1660.72
787.809	1666.53
787.994	1644.64
788.18	1709.74
788.365	1612.09
788.55	1659.17
788.735	1644.83
788.92	1608.02
789.105	1602.02
789.29	1668.47
789.475	1598.92
789.66	1586.9
789.845	1632.05
790.03	1555.9
790.215	1653.55
790.4	1607.05
790.585	1670.02
790.77	1597.17
790.955	1543.12
791.14	1598.14
791.325	1631.66
791.51	1498.55
791.695	1555.13
791.879	1549.7
792.064	1510.37
792.249	1649.48
792.434	1555.71
792.618	1584.77
792.803	1576.25
792.988	1586.32
793.173	1553.77
793.357	1565.98
793.542	1521.22
793.727	1576.83
793.911	1617.51
794.096	1552.03
794.281	1607.44
794.465	1618.1
794.65	1577.41
794.834	1596.78
795.019	1610.54
795.203	1615.77
795.388	1613.25
795.572	1634.95
795.757	1601.24
795.941	1614.22
796.126	1621.97
796.31	1577.41
796.494	1598.33
796.679	1550.87
796.863	1533.43
797.048	1625.26
797.232	1603.18
797.416	1613.45
797.601	1608.99
797.785	1620.03
797.969	1615.96
798.153	1580.51
798.338	1633.01
798.522	1646
798.706	1609.96
798.89	1646.38
799.074	1697.53
799.258	1626.81
799.443	1633.98
799.627	1598.53
799.811	1661.88
799.995	1613.06
800.179	1569.27
800.363	1614.22
800.547	1671.76
800.731	1659.17
800.915	1556.48
801.099	1584
801.283	1574.5
801.467	1603.76
801.651	1589.62
801.835	1640.18
802.019	1604.15
802.202	1614.22
802.386	1554.55
802.57	1568.88
802.754	1569.85
802.938	1539.43
803.121	1538.85
803.305	1614.61
803.489	1603.95
803.673	1605.7
803.856	1606.47
804.04	1577.6
804.224	1570.05
804.407	1565.2
804.591	1594.85
804.775	1586.9
804.958	1612.86
805.142	1675.06
805.326	1602.21
805.509	1602.02
805.693	1604.53
805.876	1639.8
806.06	1605.5
806.243	1614.22
806.427	1658.2
806.61	1613.64
806.794	1591.75
806.977	1631.08
807.16	1627.78
807.344	1620.42
807.527	1609.96
807.71	1577.41
807.894	1623.71
808.077	1656.65
808.26	1575.28
808.444	1558.42
808.627	1619.65
808.81	1594.85
808.993	1544.67
809.177	1540.4
809.36	1564.62
809.543	1560.94
809.726	1483.44
809.909	1529.94
810.092	1510.95
810.276	1478.4
810.459	1515.41
810.642	1484.6
810.825	1463.68
811.008	1487.32
811.191	1386.76
811.374	1372.62
811.557	1425.9
811.74	1471.43
811.923	1406.14
812.106	1372.04
812.289	1341.04
812.472	1362.74
812.654	1417.37
812.837	1352.27
813.02	1294.15
813.203	1294.54
813.386	1219.95
813.569	1221.88
813.751	1192.05
813.934	1253.85
814.117	1215.3
814.3	1143.61
814.482	1156.59
814.665	1126.17
814.848	1110.28
815.03	1079.87
815.213	1063.98
815.396	1076.96
815.578	1042.67
815.761	1004.3
815.943	1112.42
816.126	998.69
816.309	983.77
816.491	960.71
816.674	940.95
816.856	959.16
817.039	945.99
817.221	999.46
817.403	929.52
817.586	943.47
817.768	985.32
817.951	933.78
818.133	920.02
818.315	925.84
818.498	943.66
818.68	1033.17
818.862	1041.7
819.045	1011.47
819.227	990.36
819.409	951.02
819.591	1009.54
819.774	940.17
819.956	964.39
820.138	1005.08
820.32	1008.76
820.502	1070.18
820.684	1082
820.866	1100.4
821.048	1127.33
821.231	1123.85
821.413	1131.79
821.595	1142.25
821.777	1120.55
821.959	1083.16
822.141	1154.65
822.323	1029.1
822.505	994.23
822.686	966.91
822.868	953.35
823.05	858.41
823.232	844.66
823.414	800.68
823.596	885.93
823.778	856.67
823.96	868.68
824.141	880.31
824.323	911.5
824.505	969.24
824.687	998.49
824.868	1022.13
825.05	1094.59
825.232	1105.63
825.413	1174.22
825.595	1082.58
825.777	1020.97
825.958	1080.25
826.14	1076.57
826.321	1104.86
826.503	1060.49
826.685	1098.08
826.866	1112.8
827.048	1095.75
827.229	1069.4
827.411	1060.3
827.592	998.3
827.773	1014.57
827.955	978.73
828.136	1005.47
828.318	963.23
828.499	984.93
828.68	949.86
828.862	981.06
829.043	998.49
829.224	962.07
829.406	916.73
829.587	961.87
829.768	955.87
829.949	981.44
830.131	939.98
830.312	1035.69
830.493	1007.21
830.674	990.36
830.855	967.88
831.036	962.26
831.218	1025.81
831.399	1021.35
831.58	978.73
831.761	979.89
831.942	1001.98
832.123	985.71
832.304	959.36
832.485	924.29
832.666	956.26
832.847	1006.05
833.028	978.92
833.209	974.47
833.389	950.64
833.57	955.09
833.751	948.31
833.932	1016.9
834.113	990.36
834.294	947.15
834.475	984.16
834.655	997.91
834.836	1051
835.017	1020
835.198	959.74
835.378	985.51
835.559	1005.08
835.74	1009.73
835.92	935.52
836.101	965.36
836.281	1007.6
836.462	987.26
836.643	1035.11
836.823	1051.97
837.004	1050.61
837.184	1070.37
837.365	1054.49
837.545	1060.1
837.726	1005.85
837.906	1035.89
838.087	1035.11
838.267	1041.7
838.448	981.44
838.628	1010.12
838.808	992.87
838.989	1087.23
839.169	982.99
839.349	1059.14
839.53	1043.44
839.71	1060.69
839.89	992.49
840.07	1086.84
840.251	1017.87
840.431	1062.82
840.611	1052.16
840.791	977.18
840.971	1031.04
841.151	1020
841.332	991.13
841.512	1058.17
841.692	982.99
841.872	1046.74
842.052	1033.37
842.232	1023.29
842.412	955.09
842.592	986.09
842.772	1004.11
842.952	1031.62
843.132	1006.44
843.312	985.12
843.492	957.61
843.672	1004.69
843.851	952.96
844.031	1006.05
844.211	986.48
844.391	986.09
844.571	965.17
844.751	1008.37
844.93	990.16
845.11	946.37
845.29	992.1
845.47	1035.11
845.649	998.49
845.829	1032.59
846.009	960.71
846.188	993.65
846.368	980.28
846.547	963.04
846.727	1016.7
846.907	971.76
847.086	964.78
847.266	1010.31
847.445	1001.01
847.625	974.86
847.804	967.3
847.984	958.77
848.163	964.59
848.343	962.46
848.522	971.76
848.701	969.43
848.881	932.23
849.06	947.34
849.239	971.56
849.419	973.5
849.598	895.81
849.777	912.08
849.957	933.97
850.136	887.67
850.315	863.84
850.494	850.66
850.674	878.76
850.853	950.25
851.032	891.93
851.211	932.62
851.39	920.61
851.569	873.14
851.748	868.49
851.927	926.61
852.107	935.33
852.286	841.94
852.465	871.78
852.644	935.72
852.823	889.41
853.002	879.34
853.181	878.37
853.359	898.13
853.538	833.61
853.717	908.21
853.896	830.9
854.075	792.93
854.254	799.71
854.433	728.22
854.611	766.96
854.79	753.79
854.969	798.55
855.148	808.43
855.327	721.43
855.505	792.35
855.684	789.63
855.863	821.02
856.041	759.02
856.22	813.27
856.399	769.1
856.577	886.31
856.756	835.74
856.934	930.68
857.113	929.71
857.291	866.36
857.47	832.45
857.648	835.55
857.827	850.08
858.005	869.26
858.184	825.09
858.362	918.47
858.541	876.24
858.719	835.74
858.898	843.88
859.076	833.61
859.254	907.04
859.433	830.9
859.611	795.83
859.789	782.85
859.967	883.21
860.146	906.08
860.324	816.18
860.502	822.18
860.68	781.69
860.859	802.61
861.037	813.85
861.215	814.24
861.393	833.03
861.571	797.19
861.749	797.96
861.927	836.33
862.105	853.38
862.283	815.6
862.461	766.19
862.639	771.03
862.817	802.42
862.995	807.26
863.173	765.8
863.351	800.1
863.529	817.92
863.707	844.66
863.885	808.81
864.063	743.91
864.241	773.55
864.418	817.53
864.596	763.09
864.774	739.06
864.952	814.05
865.129	776.65
865.307	744.68
865.485	739.45
865.663	796.8
865.84	745.46
866.018	733.64
866.196	624.56
866.373	689.85
866.551	649.75
866.728	609.64
866.906	670.87
867.084	685.01
867.261	718.53
867.439	713.3
867.616	737.32
867.794	691.21
867.971	730.54
868.149	700.51
868.326	772.2
868.503	737.32
868.681	698.38
868.858	685.98
869.035	691.79
869.213	722.6
869.39	707.87
869.567	737.9
869.745	708.84
869.922	749.14
870.099	736.93
870.276	742.36
870.454	755.92
870.631	736.93
870.808	714.27
870.985	746.04
871.162	797.96
871.339	720.27
871.517	671.64
871.694	702.45
871.871	703.61
872.048	708.84
872.225	674.35
872.402	722.98
872.579	698.18
872.756	717.56
872.933	678.42
873.11	685.01
873.287	700.9
873.463	708.07
873.64	655.95
873.817	721.43
873.994	705.16
874.171	682.68
874.348	695.08
874.524	646.07
874.701	695.08
874.878	649.36
875.055	737.32
875.231	683.07
875.408	673.58
875.585	622.24
875.762	683.27
875.938	689.08
876.115	679.58
876.291	644.9
876.468	671.83
876.645	591.62
876.821	663.89
876.998	662.73
877.174	705.74
877.351	640.06
877.527	646.07
877.704	669.7
877.88	651.3
878.057	640.25
878.233	678.23
878.409	622.24
878.586	621.65
878.762	611.97
878.938	611.39
879.115	567.02
879.291	604.02
879.467	578.64
879.644	613.71
879.82	652.65
879.996	603.44
880.172	585.23
880.349	578.45
880.525	633.67
880.701	576.32
880.877	597.44
881.053	597.05
881.229	607.51
881.405	652.65
881.581	556.17
881.757	598.02
881.933	626.69
882.109	622.43
882.285	620.88
882.461	573.99
882.637	603.05
882.813	572.44
882.989	601.89
883.165	657.11
883.341	586.97
883.517	630.76
883.693	613.71
883.869	661.18
884.044	563.72
884.22	636.57
884.396	634.83
884.572	612.74
884.747	635.99
884.923	631.92
885.099	629.99
885.275	658.27
885.45	594.72
885.626	573.8
885.801	591.43
885.977	596.08
886.153	548.81
886.328	619.72
886.504	579.8
886.679	623.98
886.855	574.77
887.03	598.21
887.206	627.27
887.381	602.86
887.557	599.95
887.732	614.1
887.908	610.03
888.083	644.13
888.258	578.64
888.434	599.37
888.609	578.06
888.784	614.49
888.96	577.29
889.135	567.6
889.31	568.18
889.485	602.67
889.661	573.8
889.836	615.26
890.011	622.24
890.186	582.9
890.361	563.53
890.537	596.85
890.712	611.19
890.887	566.82
891.062	604.41
891.237	660.98
891.412	578.45
891.587	575.15
891.762	617.97
891.937	606.15
892.112	581.55
892.287	586.97
892.462	566.44
892.637	505.21
892.812	551.52
892.987	570.5
893.161	531.17
893.336	574.96
893.511	525.56
893.686	554.04
893.861	547.06
894.035	533.5
894.21	544.74
894.385	507.54
894.56	525.17
894.734	492.04
894.909	481.96
895.084	483.9
895.258	500.76
895.433	474.6
895.608	453.09
895.782	435.08
895.957	439.73
896.131	461.23
896.306	398.26
896.48	416.67
896.655	416.09
896.829	381.99
897.004	380.63
897.178	402.14
897.353	347.7
897.527	418.22
897.701	405.04
897.876	362.61
898.05	422.87
898.224	408.14
898.399	431.2
898.573	401.17
898.747	310.88
898.921	365.71
899.096	305.65
899.27	310.11
899.444	327.35
899.618	335.49
899.792	331.81
899.967	318.63
900.141	349.25
900.315	294.03
900.489	320.76
900.663	347.7
900.837	334.52
901.011	295.77
901.185	382.38
901.359	341.5
901.533	352.15
901.707	338.2
901.881	351.96
902.055	299.26
902.229	321.35
902.403	360.1
902.576	346.92
902.75	327.93
902.924	440.89
903.098	382.57
903.272	405.82
903.446	419.38
903.619	405.04
903.793	453.29
903.967	405.63
904.14	421.13
904.314	444.38
904.488	413.18
904.661	447.86
904.835	420.35
905.009	469.56
905.182	508.89
905.356	464.91
905.529	424.03
905.703	403.49
905.876	408.34
906.05	388.19
906.223	364.75
906.397	353.51
906.57	350.41
906.744	298.68
906.917	311.27
907.09	351.57
907.264	330.84
907.437	318.63
907.61	278.14
907.784	329.29
907.957	321.54
908.13	296.55
908.304	311.85
908.477	251.98
908.65	322.9
908.823	262.64
908.996	355.25
909.17	291.12
909.343	307.2
909.516	290.73
909.689	299.65
909.862	276.59
910.035	305.46
910.208	259.54
910.381	289.38
910.554	358.35
910.727	294.22
910.9	289.57
911.073	279.11
911.246	331.03
911.419	339.75
911.592	315.92
911.765	286.67
911.938	274.65
912.11	287.63
912.283	308.36
912.456	326.38
912.629	301.97
912.802	293.64
912.974	230.28
913.147	226.8
913.32	197.54
913.493	239.58
913.665	235.71
913.838	295.77
914.01	262.25
914.183	262.45
914.356	224.67
914.528	292.09
914.701	337.81
914.873	295.19
915.046	258.18
915.218	228.15
915.391	181.07
915.563	214.59
915.736	260.51
915.908	294.61
916.081	253.53
916.253	215.37
916.425	246.56
916.598	242.68
916.77	261.28
916.942	245.4
917.115	178.75
917.287	255.47
917.459	248.88
917.632	209.94
917.804	152.2
917.976	248.11
918.148	254.12
918.32	204.71
918.493	248.3
918.665	307.01
918.837	246.37
919.009	301.2
919.181	275.43
919.353	279.69
919.525	276.98
919.697	286.47
919.869	238.62
920.041	323.86
920.213	331.81
920.385	298.48
920.557	273.88
920.729	293.83
920.901	273.3
921.073	290.73
921.244	254.31
921.416	321.54
921.588	279.3
921.76	250.82
921.932	330.65
922.103	269.23
922.275	260.7
922.447	274.27
922.619	210.33
922.79	264.58
922.962	240.17
923.134	294.22
923.305	223.89
923.477	194.44
923.648	238.03
923.82	255.08
923.991	195.41
924.163	187.08
924.335	220.98
924.506	187.27
924.677	266.32
924.849	198.7
925.02	244.23
925.192	232.42
925.363	244.82
925.535	249.27
925.706	201.42
925.877	258.18
926.049	218.08
926.22	224.28
926.391	219.82
926.562	235.32
926.734	207.81
926.905	222.73
927.076	193.09
927.247	193.86
927.419	169.45
927.59	205.68
927.761	195.99
927.932	199.09
928.103	217.5
928.274	126.05
928.445	137.09
928.616	178.17
928.787	160.54
928.958	205.68
929.129	152.4
929.3	154.72
929.471	134.19
929.642	97.96
929.813	61.14
929.984	134.96
930.155	66.37
930.326	120.04
930.496	98.34
930.667	55.72
930.838	104.35
931.009	59.4
931.18	71.61
931.35	90.21
931.521	94.08
931.692	73.93
931.863	17.74
932.033	84.78
932.204	60.17
932.374	77.42
932.545	44.29
932.716	86.52
932.886	53.01
933.057	7.09
933.227	34.79
933.398	93.69
933.568	25.88
933.739	5.93
933.909	40.22
934.08	55.91
934.25	13.48
934.421	-3.96
934.591	47.19
934.761	-2.79
934.932	-18.87
935.102	21.23
935.272	34.02
935.443	21.04
935.613	12.13
935.783	55.14
935.953	11.54
936.123	169.06
936.294	-5.89
936.464	-0.27
936.634	22.2
936.804	-2.6
936.974	-19.46
937.144	13.68
937.314	22.01
937.484	3.41
937.655	-10.35
937.825	58.82
937.995	8.06
938.165	42.35
938.334	14.26
938.504	50.87
938.674	-7.83
938.844	17.16
939.014	45.06
939.184	43.51
939.354	79.74
939.524	58.43
939.694	30.53
939.863	16.39
940.033	94.86
940.203	65.41
940.373	65.6
940.542	76.64
940.712	40.61
940.882	85.36
941.051	80.52
941.221	76.84
941.391	118.3
941.56	24.14
941.73	25.3
941.899	146.97
942.069	45.45
942.238	46.81
942.408	59.21
942.577	75.48
942.747	36.15
942.916	-20.62
943.086	20.07
943.255	68.12
943.425	32.08
943.594	35.57
943.763	-28.95
943.933	16
944.102	-10.35
944.271	19.88
944.441	50.87
944.61	14.45
944.779	19.49
944.948	102.61
945.117	-2.21
945.287	30.14
945.456	-24.3
945.625	-1.05
945.794	63.27
945.963	42.54
946.132	37.89
946.301	-2.02
946.47	73.93
946.639	-16.55
946.808	14.84
946.977	53.39
947.146	70.25
947.315	-1.82
947.484	44.48
947.653	25.49
947.822	22.01
947.991	31.5
948.16	80.71
948.329	50.1
948.498	36.54
948.666	45.26
948.835	66.76
949.004	-19.84
949.173	-2.41
949.341	45.45
949.51	40.61
949.679	79.74
949.847	37.51
950.016	113.46
950.185	91.17
950.353	19.29
950.522	8.44
950.69	84.2
950.859	-4.54
951.028	43.9
951.196	35.76
951.365	-3.57
951.533	50.68
951.701	53.78
951.87	58.43
952.038	-3.18
952.207	17.16
952.375	91.76
952.543	3.99
952.712	28.98
952.88	25.69
953.048	113.65
953.217	31.11
953.385	23.75
953.553	61.14
953.721	-4.92
953.89	18.13
954.058	-5.31
954.226	-0.27
954.394	36.15
954.562	-19.46
954.73	29.76
954.898	28.4
955.067	75.87
955.235	22.78
955.403	58.43
955.571	92.34
955.739	57.85
955.907	20.46
956.075	10.96
956.243	23.17
956.41	52.23
956.578	22.39
956.746	20.26
956.914	14.64
957.082	67.15
957.25	86.33
957.418	9.41
957.585	54.94
957.753	78.19
957.921	-1.44
958.089	42.16
958.256	68.51
958.424	75.09
958.592	55.91
958.759	31.5
958.927	65.21
959.095	31.31
959.262	41.77
959.43	71.61
959.597	13.68
959.765	50.87
959.932	4.18
960.1	56.3
960.267	25.11
960.435	19.68
960.602	72.57
960.77	31.31
960.937	2.63
961.104	55.33
961.272	-3.96
961.439	18.33
961.606	62.11
961.774	43.51
961.941	13.29
962.108	37.12
962.275	42.54
962.443	78.19
962.61	77.81
962.777	96.02
962.944	49.52
963.111	59.59
963.278	60.76
963.446	61.53
963.613	36.15
963.78	66.76
963.947	76.26
964.114	53.2
964.281	101.25
964.448	74.12
964.615	25.3
964.782	58.04
964.949	77.61
965.116	65.41
965.282	97.96
965.449	46.81
965.616	22.2
965.783	59.98
965.95	46.42
966.117	24.72
966.283	51.26
966.45	58.62
966.617	39.64
966.784	72.57
966.95	87.69
967.117	84.59
967.284	6.12
967.45	39.83
967.617	89.24
967.784	72.19
967.95	104.35
968.117	39.44
968.283	76.06
968.45	118.49
968.616	76.84
968.783	90.21
968.949	74.51
969.116	89.04
969.282	53.78
969.449	66.76
969.615	54.36
969.781	18.91
969.948	65.02
970.114	25.49
970.28	99.89
970.447	48.94
970.613	76.45
970.779	47
970.945	72.38
971.112	66.57
971.278	33.05
971.444	62.69
971.61	105.71
971.776	52.23
971.942	75.67
972.108	84.78
972.275	58.04
972.441	90.98
972.607	109.97
972.773	30.53
972.939	69.09
973.105	59.01
973.271	4.18
973.437	57.85
973.602	39.44
973.768	68.51
973.934	42.35
974.1	96.79
974.266	-8.61
974.432	51.07
974.598	62.69
974.763	93.31
974.929	43.51
975.095	90.4
975.261	38.86
975.426	-0.86
975.592	57.66
975.758	93.89
975.923	2.44
976.089	21.62
976.255	61.72
976.42	49.71
976.586	47.58
976.751	79.36
976.917	115.2
977.082	72.19
977.248	17.74
977.413	22.98
977.579	28.79
977.744	56.69
977.91	42.35
978.075	9.61
978.24	103.19
978.406	52.81
978.571	30.14
978.736	31.31
978.902	54.56
979.067	38.28
979.232	1.86
979.397	60.17
979.563	105.32
979.728	23.36
979.893	67.92
980.058	24.14
980.223	68.7
980.388	32.08
980.554	60.56
980.719	31.31
980.884	43.9
981.049	84.97
981.214	34.99
981.379	78.19
981.544	31.89
981.709	39.06
981.874	47
982.039	37.31
982.204	73.35
982.368	25.11
982.533	39.83
982.698	74.51
982.863	94.66
983.028	39.83
983.193	53.97
983.357	54.94
983.522	58.62
983.687	29.37
983.852	9.41
984.016	35.96
984.181	55.52
984.346	40.22
984.51	71.61
984.675	55.52
984.839	68.51
985.004	35.57
985.168	59.01
985.333	51.84
985.498	57.66
985.662	55.52
985.827	34.02
985.991	34.79
986.155	31.31
986.32	66.76
986.484	103.38
986.649	59.4
986.813	14.45
986.977	66.57
987.142	75.87
987.306	-21.78
987.47	35.57
987.634	50.29
987.799	37.89
987.963	46.42
988.127	78.77
988.291	123.72
988.455	59.4
988.62	36.15
988.784	81.49
988.948	83.81
989.112	17.16
989.276	77.61
989.44	33.05
989.604	51.26
989.768	38.67
989.932	107.64
990.096	36.15
990.26	16.19
990.424	16.78
990.588	53.2
990.752	127.4
990.915	65.41
991.079	43.51
991.243	10.96
991.407	71.41
991.571	50.87
991.734	63.86
991.898	72.38
992.062	131.67
992.226	40.8
992.389	17.55
992.553	-6.86
992.717	46.22
992.88	38.09
993.044	50.1
993.207	58.24
993.371	63.86
993.535	40.61
993.698	46.61
993.862	58.24
994.025	88.66
994.189	52.81
994.352	41.19
994.515	86.33
994.679	74.12
994.842	10.77
995.006	76.26
995.169	16.78
995.332	23.94
995.496	65.79
995.659	-10.54
995.822	31.31
995.985	20.07
996.149	80.13
996.312	39.64
996.475	84.97
996.638	45.45
996.801	92.34
996.964	116.56
997.128	32.47
997.291	24.91
997.454	39.06
997.617	9.03
997.78	59.4
997.943	18.71
998.106	53.97
998.269	9.03
998.432	52.23
998.595	60.95
998.758	-12.29
998.92	2.05
999.083	-26.24
999.246	43.32
999.409	9.03
999.572	-32.44
999.735	-9.19
999.897	65.79
1000.06	13.48
1000.223	4.18
1000.386	52.04
1000.548	78.97
1000.711	37.89
1000.874	44.67
1001.036	-8.02
1001.199	47.58
1001.361	12.9
1001.524	34.02
1001.687	72.96
1001.849	14.06
1002.012	50.29
1002.174	38.86
1002.337	35.38
1002.499	29.76
1002.661	81.49
1002.824	8.06
1002.986	3.99
1003.149	29.95
1003.311	14.64
1003.473	98.34
1003.636	13.87
1003.798	56.88
1003.96	56.88
1004.123	36.15
1004.285	17.94
1004.447	26.46
1004.609	24.72
1004.771	92.34
1004.933	-15.39
1005.096	2.63
1005.258	6.12
1005.42	48.55
1005.582	68.7
1005.744	33.44
1005.906	-15.77
1006.068	37.7
1006.23	15.61
1006.392	-17.52
1006.554	6.12
1006.716	58.62
1006.878	50.49
1007.04	-12.09
1007.202	30.53
1007.363	39.64
1007.525	33.44
1007.687	30.14
1007.849	77.81
1008.011	-17.52
1008.172	-1.63
1008.334	17.55
1008.496	33.05
1008.658	-29.72
1008.819	27.82
1008.981	0.89
1009.143	9.61
1009.304	-7.06
1009.466	73.74
1009.627	82.65
1009.789	108.22
1009.95	31.31
1010.112	26.66
1010.273	42.35
1010.435	24.72
1010.596	-2.6
1010.758	20.46
1010.919	36.92
1011.081	1.86
1011.242	34.99
1011.403	42.93
1011.565	18.52
1011.726	27.63
1011.887	-19.07
1012.049	11.93
1012.21	37.51
1012.371	74.32
1012.532	-47.94
1012.693	4.57
1012.855	0.5
1013.016	34.99
1013.177	61.92
1013.338	-0.08
1013.499	88.66
1013.66	35.18
1013.821	33.05
1013.982	17.94
1014.143	25.49
1014.304	4.96
1014.465	31.31
1014.626	73.93
1014.787	1.47
1014.948	82.07
1015.109	-34.76
1015.27	68.31
1015.431	-3.76
1015.592	4.38
1015.752	40.22
1015.913	36.15
1016.074	43.32
1016.235	10.96
1016.395	19.68
1016.556	16.78
1016.717	2.05
1016.877	59.21
1017.038	1.47
1017.199	20.26
1017.359	22.01
1017.52	15.42
1017.681	14.06
1017.841	9.22
1018.002	22.78
1018.162	-9.19
1018.323	45.06
1018.483	9.8
1018.644	-5.12
1018.804	3.79
1018.964	-14.42
1019.125	11.74
1019.285	22.78
1019.446	-14.22
1019.606	-21.78
1019.766	-22.17
1019.926	30.92
1020.087	39.83
1020.247	-23.91
1020.407	34.21
1020.567	44.87
1020.728	2.44
1020.888	-35.54
1021.048	-3.37
1021.208	-24.69
1021.368	-25.46
1021.528	38.09
1021.688	54.36
1021.848	52.23
1022.008	20.84
1022.168	18.52
1022.328	25.11
1022.488	10.77
1022.648	-3.96
1022.808	2.44
1022.968	30.92
1023.128	5.34
1023.288	10.58
1023.448	16.97
1023.608	59.4
1023.767	29.76
1023.927	-5.89
1024.087	-18.87
1024.247	-14.61
1024.406	18.71
1024.566	-23.33
1024.726	-16.55
1024.885	12.9
1025.045	31.5
1025.205	16.39
1025.364	5.34
1025.524	30.14
1025.683	-4.34
1025.843	44.29
1026.003	5.93
1026.162	37.31
1026.321	57.27
1026.481	29.18
1026.64	-4.15
1026.8	-1.44
1026.959	8.64
1027.119	6.12
1027.278	-1.63
1027.437	3.99
1027.597	8.64
1027.756	18.91
1027.915	43.32
1028.074	31.31
1028.234	-32.44
1028.393	35.38
1028.552	4.18
1028.711	-56.85
1028.87	8.44
1029.03	-12.48
1029.189	-21.01
1029.348	-53.55
1029.507	-19.84
1029.666	15.03
1029.825	-28.76
1029.984	-27.4
1030.143	5.93
1030.302	12.71
1030.461	-53.36
1030.62	39.83
1030.779	30.14
1030.938	-13.06
1031.097	-37.28
1031.255	24.53
1031.414	52.23
1031.573	54.17
1031.732	-21.01
1031.891	3.79
1032.049	30.34
1032.208	10.19
1032.367	-11.71
1032.525	-5.31
1032.684	3.02
1032.843	-2.99
1033.001	-46
1033.16	131.86
1033.319	37.31
1033.477	13.09
1033.636	-0.08
1033.794	-23.14
1033.953	21.81
1034.111	42.93
1034.27	4.38
1034.428	42.35
1034.587	-6.86
1034.745	37.89
1034.903	22.78
1035.062	37.31
1035.22	-48.52
1035.378	3.99
1035.537	-26.43
1035.695	29.76
1035.853	-1.82
1036.011	40.8
1036.17	19.68
1036.328	-38.06
1036.486	12.9
1036.644	24.72
1036.802	-70.8
1036.96	-0.08
1037.119	-8.61
1037.277	-11.12
1037.435	-35.34
1037.593	-14.22
1037.751	-11.51
1037.909	38.47
1038.067	38.47
