Data from oakcork_FLMT105791__224__17-32-55-045.txt Node

Date: Mon Mar 20 17:32:55 GMT 2023
User: antho
Spectrometer: FLMT10579
Trigger mode: 0
Integration Time (sec): 1.000000E-1
Scans to average: 10
Electric dark correction enabled: true
Nonlinearity correction enabled: false
Boxcar width: 0
XAxis mode: Wavelengths
Number of Pixels in Spectrum: 3648
>>>>>Begin Spectral Data<<<<<
345.248	-142.69
345.464	-142.69
345.681	-142.69
345.898	-155.68
346.114	-150.83
346.331	-26.25
346.548	19.67
346.764	11.72
346.981	-9.78
347.197	-21.8
347.414	24.32
347.631	-25.09
347.847	74.69
348.064	3.39
348.28	10.56
348.497	-50.08
348.713	-11.33
348.93	19.47
349.146	8.04
349.363	-7.65
349.579	22.18
349.796	-4.17
350.012	-29.35
350.229	22.96
350.445	11.92
350.661	-5.72
350.878	15.4
351.094	18.31
351.311	24.51
351.527	10.56
351.743	-15.4
351.96	28.19
352.176	58.22
352.392	36.52
352.609	44.85
352.825	-18.31
353.041	-4.75
353.257	3.39
353.474	11.53
353.69	34
353.906	-5.91
354.122	-35.94
354.339	53.76
354.555	25.28
354.771	3
354.987	35.55
355.203	60.16
355.42	-11.72
355.636	7.46
355.852	-7.65
356.068	17.73
356.284	-30.13
356.5	53.76
356.716	43.11
356.932	-0.87
357.148	12.69
357.364	4.55
357.58	37.3
357.796	73.72
358.012	65.39
358.228	3
358.444	-14.82
358.66	54.93
358.876	26.45
359.092	9.2
359.308	21.8
359.524	41.95
359.74	-1.65
359.956	-1.65
360.172	4.17
360.388	42.33
360.604	7.27
360.819	80.5
361.035	21.99
361.251	49.7
361.467	-26.64
361.683	52.41
361.898	20.44
362.114	48.53
362.33	18.31
362.546	66.36
362.762	31.29
362.977	29.16
363.193	-34
363.409	46.01
363.624	-20.05
363.84	-0.1
364.056	3.97
364.271	59.19
364.487	31.68
364.703	13.27
364.918	-13.47
365.134	3.97
365.35	-8.62
365.565	102.59
365.781	10.56
365.996	31.1
366.212	72.56
366.427	41.17
366.643	2.42
366.858	16.57
367.074	-5.91
367.289	40.4
367.505	106.27
367.72	-14.43
367.936	3.39
368.151	53.38
368.367	39.43
368.582	50.47
368.798	5.91
369.013	52.41
369.228	18.12
369.444	52.6
369.659	88.06
369.874	18.31
370.09	70.62
370.305	-35.55
370.52	-4.36
370.736	55.9
370.951	31.1
371.166	62.68
371.381	63.06
371.597	69.07
371.812	2.03
372.027	-5.91
372.242	24.12
372.458	82.44
372.673	5.52
372.888	39.62
373.103	43.3
373.318	89.22
373.533	58.61
373.749	45.82
373.964	-21.99
374.179	87.28
374.394	23.93
374.609	71.78
374.824	19.47
375.039	65.39
375.254	24.12
375.469	65.78
375.684	50.66
375.899	73.53
376.114	16.76
376.329	46.4
376.544	57.06
376.759	46.01
376.974	-22.57
377.189	17.53
377.404	32.65
377.619	71.2
377.834	-13.66
378.049	3
378.264	-7.85
378.478	33.81
378.693	8.04
378.908	45.63
379.123	18.31
379.338	54.93
379.553	11.53
379.767	16.95
379.982	51.44
380.197	48.92
380.412	52.21
380.626	49.31
380.841	129.13
381.056	46.01
381.271	79.53
381.485	24.12
381.7	10.75
381.915	34
382.129	19.47
382.344	19.67
382.559	32.65
382.773	64.81
382.988	-22.57
383.202	51.63
383.417	-4.75
383.632	133.98
383.846	23.54
384.061	46.79
384.275	48.34
384.49	59.38
384.704	63.45
384.919	33.81
385.133	49.89
385.348	63.65
385.562	13.85
385.777	77.01
385.991	39.43
386.206	46.01
386.42	21.6
386.634	82.25
386.849	48.73
387.063	54.54
387.277	43.5
387.492	22.77
387.706	1.07
387.92	21.6
388.135	59.77
388.349	54.15
388.563	33.81
388.778	59.19
388.992	59.58
389.206	71.01
389.42	120.41
389.635	71.78
389.849	83.8
390.063	115.18
390.277	51.63
390.491	105.3
390.706	55.51
390.92	83.6
391.134	81.28
391.348	66.75
391.562	21.6
391.776	40.98
391.99	39.43
392.205	63.45
392.419	28.58
392.633	38.07
392.847	95.42
393.061	40.2
393.275	126.42
393.489	24.9
393.703	66.55
393.917	98.33
394.131	21.99
394.345	96.2
394.559	90.96
394.773	53.96
394.986	73.91
395.2	56.67
395.414	89.8
395.628	37.3
395.842	71.59
396.056	63.84
396.27	0.29
396.484	59.19
396.697	39.23
396.911	98.71
397.125	57.25
397.339	83.41
397.553	63.26
397.766	130.49
397.98	105.69
398.194	118.86
398.408	70.04
398.621	83.8
398.835	96.58
399.049	100.46
399.262	124.29
399.476	116.35
399.69	101.62
399.903	182.22
400.117	88.06
400.331	85.73
400.544	51.63
400.758	198.69
400.971	126.03
401.185	121.19
401.398	90
401.612	167.3
401.826	133.98
402.039	120.03
402.253	87.67
402.466	135.91
402.68	121.38
402.893	105.11
403.106	122.74
403.32	131.46
403.533	140.37
403.747	120.22
403.96	126.42
404.174	137.85
404.387	76.24
404.6	123.32
404.814	145.99
405.027	116.15
405.24	128.55
405.454	110.53
405.667	170.4
405.88	67.13
406.094	121.77
406.307	138.04
406.52	144.44
406.733	107.05
406.947	73.72
407.16	182.41
407.373	163.62
407.586	90.58
407.799	89.41
408.012	158.78
408.226	150.25
408.439	177.96
408.652	102.2
408.865	148.89
409.078	158.58
409.291	141.34
409.504	120.41
409.717	144.05
409.93	148.51
410.143	139.21
410.357	94.84
410.57	94.65
410.783	121.58
410.996	111.31
411.209	146.96
411.421	165.36
411.634	137.46
411.847	109.18
412.06	156.06
412.273	138.43
412.486	145.21
412.699	224.46
412.912	160.33
413.125	157.81
413.338	167.3
413.55	208.57
413.763	149.48
413.976	149.09
414.189	120.22
414.402	131.07
414.615	220.58
414.827	94.26
415.04	181.25
415.253	162.26
415.466	182.61
415.678	191.52
415.891	158.39
416.104	147.93
416.316	158.58
416.529	139.21
416.742	210.7
416.954	166.72
417.167	154.9
417.38	143.08
417.592	215.16
417.805	120.22
418.017	125.26
418.23	162.46
418.442	149.28
418.655	152.19
418.868	149.09
419.08	222.13
419.293	213.22
419.505	170.4
419.718	177.57
419.93	210.12
420.142	155.29
420.355	221.36
420.567	225.42
420.78	190.36
420.992	186.29
421.205	230.66
421.417	147.54
421.629	171.56
421.842	157.81
422.054	136.88
422.266	209.54
422.479	191.13
422.691	146.76
422.903	194.43
423.115	145.6
423.328	174.47
423.54	174.47
423.752	183.96
423.964	190.74
424.177	187.84
424.389	167.3
424.601	276.57
424.813	187.06
425.025	230.46
425.238	198.11
425.45	170.59
425.662	171.76
425.874	431.38
426.086	174.08
426.298	204.5
426.51	184.35
426.722	186.87
426.934	204.11
427.146	218.84
427.358	173.31
427.57	208.38
427.782	188.03
427.994	178.73
428.206	167.88
428.418	164.98
428.63	189.39
428.842	211.28
429.054	204.5
429.266	217.09
429.478	182.03
429.69	204.5
429.902	141.14
430.114	204.69
430.325	199.27
430.537	125.84
430.749	166.14
430.961	100.46
431.173	157.42
431.384	190.94
431.596	118.86
431.808	178.54
432.02	239.37
432.231	221.94
432.443	259.72
432.655	223.49
432.867	192.29
433.078	225.62
433.29	277.93
433.502	233.17
433.713	242.86
433.925	241.51
434.136	272.51
434.348	177.38
434.56	145.99
434.771	291.88
434.983	174.86
435.194	236.08
435.406	211.28
435.617	264.17
435.829	313.19
436.04	270.76
436.252	253.91
436.463	292.66
436.675	282.39
436.886	251.39
437.098	267.47
437.309	298.27
437.521	248.87
437.732	244.02
437.943	262.04
438.155	235.31
438.366	215.93
438.578	295.95
438.789	256.62
439	254.49
439.211	222.91
439.423	286.65
439.634	296.14
439.845	279.87
440.057	263.4
440.268	295.37
440.479	256.81
440.69	289.17
440.902	253.52
441.113	264.56
441.324	263.4
441.535	285.68
441.746	329.27
441.957	254.87
442.168	258.56
442.38	313.58
442.591	301.18
442.802	292.85
443.013	267.47
443.224	326.75
443.435	282.77
443.646	280.26
443.857	290.72
444.068	285.68
444.279	260.49
444.49	349.04
444.701	274.25
444.912	383.91
445.123	335.28
445.334	320.17
445.545	316.49
445.756	307.57
445.967	277.93
446.178	324.62
446.388	320.36
446.599	338.57
446.81	336.64
447.021	300.79
447.232	336.05
447.443	356.98
447.653	321.52
447.864	356.01
448.075	315.71
448.286	346.71
448.496	343.61
448.707	345.35
448.918	299.44
449.129	436.8
449.339	303.12
449.55	341.48
449.761	319.78
449.971	379.07
450.182	321.91
450.393	363.18
450.603	331.6
450.814	392.05
451.024	368.41
451.235	393.79
451.446	395.53
451.656	405.42
451.867	338.77
452.077	361.24
452.288	401.15
452.498	406.58
452.709	344.19
452.919	375.77
453.13	313.77
453.34	387.98
453.55	293.24
453.761	400.38
453.971	355.62
454.182	395.34
454.392	354.85
454.602	426.53
454.813	390.3
455.023	393.21
455.233	342.64
455.444	386.24
455.654	306.99
455.864	353.88
456.075	356.79
456.285	350.78
456.495	377.71
456.705	375.19
456.916	407.16
457.126	430.41
457.336	374.61
457.546	323.27
457.756	365.12
457.967	407.55
458.177	369.57
458.387	389.14
458.597	369.38
458.807	386.82
459.017	356.98
459.227	349.81
459.437	355.62
459.647	393.6
459.857	410.45
460.068	368.99
460.278	441.07
460.488	411.81
460.698	440.87
460.908	388.95
461.117	372.48
461.327	398.44
461.537	399.6
461.747	425.76
461.957	401.93
462.167	508.88
462.377	432.54
462.587	435.45
462.797	449.2
463.007	414.13
463.216	443.39
463.426	439.13
463.636	459.47
463.846	369.77
464.056	362.79
464.265	451.53
464.475	422.47
464.685	420.92
464.895	448.04
465.104	423.24
465.314	449.59
465.524	408.13
465.733	420.14
465.943	511.98
466.153	490.66
466.362	498.41
466.572	465.67
466.782	439.32
466.991	443
467.201	489.11
467.41	413.75
467.62	465.87
467.829	425.18
468.039	488.53
468.249	433.12
468.458	481.56
468.668	483.88
468.877	471.29
469.086	502.48
469.296	509.46
469.505	466.06
469.715	512.17
469.924	486.6
470.134	518.76
470.343	535.42
470.552	453.66
470.762	459.47
470.971	440.87
471.18	523.21
471.39	475.94
471.599	470.32
471.808	518.56
472.018	471.48
472.227	545.11
472.436	517.98
472.645	510.62
472.855	523.6
473.064	551.11
473.273	504.81
473.482	515.08
473.691	583.47
473.901	534.65
474.11	507.71
474.319	615.24
474.528	550.92
474.737	595.48
474.946	567.58
475.155	576.11
475.364	596.64
475.573	573.01
475.783	544.91
475.992	583.66
476.201	621.06
476.41	569.91
476.619	563.51
476.828	586.18
477.037	584.83
477.245	579.21
477.454	611.95
477.663	591.41
477.872	584.63
478.081	668.72
478.29	560.03
478.499	667.94
478.708	647.79
478.917	676.86
479.125	592.38
479.334	657.67
479.543	602.84
479.752	624.16
479.961	633.07
480.169	691.97
480.378	624.35
480.587	766.95
480.796	687.71
481.004	654.96
481.213	683.06
481.422	689.26
481.63	694.87
481.839	721.61
482.048	759.97
482.256	710.57
482.465	725.29
482.674	744.47
482.882	756.29
483.091	798.92
483.299	752.8
483.508	738.27
483.716	740.02
483.925	724.71
484.134	726.84
484.342	747.77
484.551	761.14
484.759	763.27
484.967	770.82
485.176	774.31
485.384	760.94
485.593	764.43
485.801	793.69
486.01	729.94
486.218	697.01
486.426	658.84
486.635	674.34
486.843	687.51
487.051	688.29
487.26	691.58
487.468	718.71
487.676	774.89
487.885	747.96
488.093	753
488.301	783.42
488.509	793.3
488.717	822.75
488.926	786.52
489.134	803.57
489.342	774.5
489.55	782.06
489.758	797.75
489.967	780.32
490.175	925.82
490.383	848.13
490.591	925.24
490.799	847.35
491.007	905.09
491.215	880.48
491.423	863.82
491.631	838.05
491.839	832.82
492.047	864.98
492.255	831.27
492.463	779.74
492.671	816.16
492.879	899.67
493.087	851.62
493.295	896.57
493.503	887.65
493.711	932.02
493.919	918.85
494.127	901.8
494.334	920.59
494.542	875.25
494.75	905.48
494.958	909.35
495.166	956.24
495.374	958.37
495.581	945.39
495.789	932.02
495.997	994.8
496.205	915.94
496.412	932.21
496.62	935.31
496.828	959.92
497.035	952.36
497.243	945.39
497.451	963.8
497.658	956.43
497.866	978.52
498.074	972.13
498.281	923.88
498.489	1011.46
498.696	976.58
498.904	938.22
499.112	933.18
499.319	1027.34
499.527	949.26
499.734	1026.76
499.942	937.45
500.149	947.71
500.357	946.36
500.564	913.62
500.771	953.53
500.979	916.13
501.186	908
501.394	970.38
501.601	942.29
501.808	968.25
502.016	939.19
502.223	926.98
502.43	950.23
502.638	932.8
502.845	917.88
503.052	998.09
503.26	943.65
503.467	1046.91
503.674	933.76
503.881	962.44
504.089	1065.71
504.296	970.38
504.503	905.87
504.71	962.05
504.917	939
505.125	989.76
505.332	994.21
505.539	1010.88
505.746	1050.59
505.953	1033.93
506.16	1026.57
506.367	1090.51
506.574	1082.76
506.781	1114.14
506.988	997.9
507.195	1040.91
507.402	1038.19
507.609	1058.34
507.816	1004.29
508.023	1015.91
508.23	993.83
508.437	982.4
508.644	1047.88
508.851	1068.42
509.058	1060.48
509.265	1060.67
509.472	1106.97
509.679	1157.93
509.885	1072.1
510.092	1066.48
510.299	1084.5
510.506	1045.56
510.713	1099.81
510.92	1077.91
511.126	1104.65
511.333	1109.69
511.54	1087.6
511.746	1141.85
511.953	1127.9
512.16	1179.05
512.367	1106.39
512.573	1091.28
512.78	1088.57
512.987	1115.69
513.193	1076.17
513.4	1025.41
513.606	1073.84
513.813	1103.1
514.02	1100.58
514.226	1163.74
514.433	1118.41
514.639	1063.77
514.846	1118.41
515.052	1114.53
515.259	1135.26
515.465	1148.44
515.672	1123.06
515.878	1208.69
516.085	1116.27
516.291	1178.27
516.497	1114.72
516.704	1097.67
516.91	1057.96
517.117	1011.46
517.323	982.01
517.529	1000.8
517.736	987.63
517.942	1041.1
518.148	1061.64
518.354	1071.52
518.561	1074.81
518.767	1055.44
518.973	1115.31
519.179	1076.75
519.386	1054.28
519.592	1097.67
519.798	1092.83
520.004	1175.37
520.21	1156.57
520.417	1154.44
520.623	1220.9
520.829	1217.99
521.035	1212.57
521.241	1236.01
521.447	1237.75
521.653	1326.88
521.859	1226.52
522.065	1251.32
522.271	1305.57
522.477	1251.7
522.683	1294.13
522.889	1279.6
523.095	1261.2
523.301	1264.69
523.507	1236.79
523.713	1268.17
523.919	1242.21
524.125	1289.29
524.331	1288.52
524.537	1331.53
524.742	1363.5
524.948	1352.65
525.154	1329.2
525.36	1397.79
525.566	1331.72
525.772	1391.4
525.977	1285.61
526.183	1371.25
526.389	1389.26
526.595	1289.48
526.8	1299.95
527.006	1260.04
527.212	1240.08
527.417	1225.94
527.623	1219.93
527.829	1319.32
528.034	1304.4
528.24	1333.66
528.446	1297.62
528.651	1374.15
528.857	1398.95
529.062	1434.99
529.268	1402.44
529.473	1424.53
529.679	1403.02
529.884	1465.99
530.09	1439.83
530.295	1479.94
530.501	1474.9
530.706	1447.97
530.912	1420.65
531.117	1470.44
531.323	1456.49
531.528	1483.81
531.733	1516.36
531.939	1453.78
532.144	1502.8
532.35	1464.83
532.555	1492.34
532.76	1482.26
532.966	1488.27
533.171	1477.81
533.376	1403.6
533.581	1414.45
533.787	1422.78
533.992	1486.72
534.197	1502.03
534.402	1493.31
534.607	1471.03
534.813	1575.65
535.018	1505.71
535.223	1511.13
535.428	1506.09
535.633	1572.55
535.838	1526.24
536.043	1548.72
536.249	1602.39
536.454	1550.66
536.659	1530.51
536.864	1557.24
537.069	1509.39
537.274	1564.61
537.479	1548.91
537.684	1533.02
537.889	1471.99
538.094	1640.36
538.299	1510.74
538.504	1582.24
538.708	1552.21
538.913	1604.52
539.118	1557.05
539.323	1560.73
539.528	1535.16
539.733	1548.52
539.938	1608.2
540.142	1579.52
540.347	1540.97
540.552	1557.24
540.757	1498.73
540.962	1542.91
541.166	1494.08
541.371	1498.15
541.576	1526.05
541.781	1469.67
541.985	1601.22
542.19	1593.28
542.395	1622.34
542.599	1610.72
542.804	1634.55
543.008	1656.64
543.213	1578.36
543.418	1555.69
543.622	1630.87
543.827	1578.56
544.031	1647.92
544.236	1628.93
544.44	1616.72
544.645	1678.34
544.849	1648.11
545.054	1657.02
545.258	1739.17
545.463	1688.22
545.667	1620.02
545.872	1692.67
546.076	1671.75
546.281	1661.09
546.485	1620.4
546.689	1672.14
546.894	1678.53
547.098	1682.99
547.302	1627.57
547.507	1646.17
547.711	1647.34
547.915	1686.86
548.119	1626.02
548.324	1639.59
548.528	1684.73
548.732	1675.82
548.936	1682.99
549.141	1685.7
549.345	1679.89
549.549	1659.15
549.753	1677.75
549.957	1765.52
550.161	1748.86
550.366	1730.84
550.57	1661.29
550.774	1694.03
550.978	1691.9
551.182	1708.37
551.386	1708.37
551.59	1671.75
551.794	1645.59
551.998	1740.33
552.202	1680.85
552.406	1656.44
552.61	1703.33
552.814	1706.43
553.018	1769.4
553.222	1712.43
553.426	1689.77
553.63	1744.98
553.833	1694.22
554.037	1668.65
554.241	1682.21
554.445	1708.75
554.649	1695
554.853	1665.35
555.056	1742.47
555.26	1751.18
555.464	1692.67
555.668	1716.31
555.871	1704.88
556.075	1719.6
556.279	1694.8
556.483	1676.01
556.686	1686.86
556.89	1665.74
557.094	1688.41
557.297	1650.63
557.501	1729.87
557.704	1593.86
557.908	1692.87
558.112	1658.38
558.315	1699.07
558.519	1702.75
558.722	1640.17
558.926	1664.39
559.129	1596.38
559.333	1553.95
559.536	1571.58
559.74	1556.08
559.943	1555.11
560.147	1559.76
560.35	1579.52
560.553	1552.79
560.757	1570.22
560.96	1667.1
561.164	1564.41
561.367	1668.07
561.57	1636.68
561.774	1623.31
561.977	1567.12
562.18	1565.38
562.384	1695.97
562.587	1598.12
562.79	1579.91
562.993	1583.4
563.197	1593.28
563.4	1659.35
563.603	1636.87
563.806	1660.12
564.009	1545.42
564.212	1561.89
564.416	1567.32
564.619	1573.32
564.822	1561.31
565.025	1611.11
565.228	1563.06
565.431	1588.63
565.634	1489.82
565.837	1518.3
566.04	1522.18
566.243	1506.09
566.446	1449.71
566.649	1543.29
566.852	1473.74
567.055	1492.53
567.258	1539.61
567.461	1571.77
567.664	1589.21
567.867	1458.04
568.07	1498.34
568.273	1524.11
568.475	1512.29
568.678	1455.53
568.881	1474.13
569.084	1499.89
569.287	1367.95
569.489	1407.28
569.692	1462.89
569.895	1446.23
570.098	1397.98
570.3	1365.24
570.503	1331.92
570.706	1356.52
570.909	1346.06
571.111	1318.35
571.314	1348.58
571.516	1347.42
571.719	1379.96
571.922	1364.66
572.124	1360.59
572.327	1382.29
572.529	1342.77
572.732	1361.95
572.935	1352.65
573.137	1404.76
573.34	1339.47
573.542	1360.01
573.745	1391.01
573.947	1376.09
574.15	1375.7
574.352	1323.2
574.554	1383.26
574.757	1336.37
574.959	1313.9
575.162	1296.46
575.364	1338.5
575.566	1420.07
575.769	1296.65
575.971	1338.5
576.173	1234.07
576.376	1283.48
576.578	1322.03
576.78	1354.58
576.982	1245.89
577.185	1274.95
577.387	1292.78
577.589	1269.72
577.791	1277.08
577.993	1305.76
578.196	1279.22
578.398	1289.29
578.6	1283.48
578.802	1241.05
579.004	1229.62
579.206	1235.04
579.408	1307.7
579.61	1218.96
579.812	1278.05
580.014	1265.46
580.216	1274.95
580.418	1261.59
580.62	1242.21
580.822	1248.41
581.024	1242.02
581.226	1303.05
581.428	1268.95
581.63	1330.75
581.832	1254.8
582.034	1307.12
582.236	1277.67
582.438	1322.23
582.64	1330.37
582.841	1313.32
583.043	1386.94
583.245	1305.18
583.447	1298.4
583.649	1330.56
583.85	1302.66
584.052	1333.85
584.254	1262.36
584.456	1324.75
584.657	1241.63
584.859	1313.32
585.061	1296.46
585.262	1285.8
585.464	1237.37
585.666	1292.2
585.867	1253.84
586.069	1313.9
586.27	1276.12
586.472	1281.54
586.674	1235.24
586.875	1247.64
587.077	1247.25
587.278	1287.16
587.48	1251.12
587.681	1346.06
587.883	1247.05
588.084	1211.79
588.285	1231.55
588.487	1208.3
588.688	1216.64
588.89	1177.11
589.091	1155.8
589.292	1131.19
589.494	1115.11
589.695	1090.31
589.896	1047.3
590.098	1063.96
590.299	1107.94
590.5	1091.28
590.702	1128.48
590.903	1127.71
591.104	1210.44
591.305	1175.37
591.507	1224.58
591.708	1215.47
591.909	1148.44
592.11	1202.3
592.311	1157.54
592.512	1135.46
592.714	1104.84
592.915	1132.55
593.116	1137.01
593.317	1157.54
593.518	1131.19
593.719	1149.41
593.92	1200.36
594.121	1194.55
594.322	1166.07
594.523	1160.45
594.724	1101.74
594.925	1136.62
595.126	1157.93
595.327	1157.35
595.528	1169.17
595.729	1161.61
595.929	1131.77
596.13	1155.8
596.331	1155.99
596.532	1151.73
596.733	1235.04
596.934	1189.7
597.135	1195.52
597.335	1205.2
597.536	1156.19
597.737	1187.57
597.938	1119.18
598.138	1174.01
598.339	1161.81
598.54	1193.58
598.74	1162
598.941	1134.1
599.142	1216.83
599.342	1193
599.543	1168.01
599.744	1155.99
599.944	1147.27
600.145	1157.16
600.345	1168.59
600.546	1256.74
600.746	1227.68
600.947	1226.9
601.147	1159.87
601.348	1196.49
601.548	1164.71
601.749	1172.46
601.949	1152.12
602.15	1130.03
602.35	1135.26
602.551	1169.36
602.751	1119.18
602.951	1158.51
603.152	1089.54
603.352	1176.53
603.552	1178.66
603.753	1223.61
603.953	1168.39
604.153	1173.62
604.354	1156.96
604.554	1163.16
604.754	1171.49
604.954	1125.77
605.155	1208.89
605.355	1177.69
605.555	1197.65
605.755	1223.03
605.955	1171.88
606.155	1204.82
606.356	1177.69
606.556	1167.62
606.756	1179.44
606.956	1104.07
607.156	1207.34
607.356	1136.42
607.556	1136.42
607.756	1163.55
607.956	1215.09
608.156	1143.4
608.356	1140.69
608.556	1168.59
608.756	1153.86
608.956	1094.77
609.156	1131.19
609.356	1138.94
609.556	1080.24
609.755	1111.62
609.955	1126.54
610.155	1131.58
610.355	1141.46
610.555	1114.14
610.755	1127.9
610.954	1072.88
611.154	1123.83
611.354	1147.66
611.554	1093.61
611.753	1089.15
611.953	1069.58
612.153	1138.36
612.352	1103.49
612.552	1081.4
612.752	1034.9
612.951	1090.31
613.151	1097.67
613.351	1076.17
613.55	1097.87
613.75	1122.67
613.949	1053.69
614.149	1099.03
614.348	1091.86
614.548	1057.18
614.747	1014.75
614.947	1089.93
615.146	997.12
615.346	1084.89
615.545	1075.2
615.745	1091.48
615.944	1072.68
616.144	1074.62
616.343	1093.61
616.542	1055.24
616.742	1043.81
616.941	1035.09
617.14	976.39
617.34	1010.49
617.539	1055.05
617.738	1034.71
617.938	1082.76
618.137	1048.27
618.336	1012.43
618.535	1048.08
618.734	1054.08
618.934	1084.89
619.133	1074.23
619.332	1086.05
619.531	1034.9
619.73	1063.96
619.929	1095.35
620.128	1087.41
620.328	1124.22
620.527	1050.21
620.726	1053.69
620.925	1042.26
621.124	1033.54
621.323	1036.06
621.522	1000.22
621.721	1015.14
621.92	999.06
622.119	1042.46
622.318	1008.36
622.517	1028.89
622.715	1021.92
622.914	962.25
623.113	1000.8
623.312	975.61
623.511	1016.88
623.71	981.62
623.909	990.73
624.107	1046.72
624.306	956.24
624.505	950.23
624.704	990.53
624.902	964.57
625.101	1037.23
625.3	1016.88
625.499	934.15
625.697	964.18
625.896	973.87
626.095	985.5
626.293	933.57
626.492	949.65
626.69	995.18
626.889	943.45
627.088	1017.46
627.286	956.63
627.485	930.47
627.683	912.65
627.882	994.99
628.08	916.52
628.279	932.21
628.477	965.93
628.676	891.33
628.874	931.63
629.073	910.52
629.271	881.65
629.469	940.16
629.668	925.63
629.866	920.01
630.065	914.2
630.263	962.44
630.461	893.66
630.66	922.14
630.858	960.31
631.056	976.39
631.254	958.37
631.453	905.09
631.651	972.32
631.849	895.21
632.047	928.15
632.245	917.1
632.444	925.63
632.642	929.31
632.84	960.11
633.038	902.77
633.236	907.61
633.434	926.01
633.632	911.68
633.83	888.04
634.028	931.44
634.227	956.24
634.425	989.95
634.623	938.41
634.821	961.66
635.019	965.73
635.216	935.9
635.414	954.11
635.612	959.15
635.81	919.23
636.008	1002.55
636.206	931.05
636.404	969.61
636.602	926.98
636.8	923.88
636.997	962.44
637.195	988.4
637.393	951.59
637.591	1025.6
637.789	970.19
637.986	930.66
638.184	985.11
638.382	968.64
638.58	979.88
638.777	1015.53
638.975	955.85
639.173	964.38
639.37	952.17
639.568	979.68
639.765	955.66
639.963	944.23
640.161	982.98
640.358	958.56
640.556	903.35
640.753	900.44
640.951	938.8
641.148	922.33
641.346	915.75
641.543	942.48
641.741	939
641.938	899.28
642.136	919.43
642.333	902.77
642.531	985.5
642.728	979.1
642.925	923.69
643.123	942.87
643.32	922.91
643.517	907.8
643.715	912.26
643.912	904.12
644.109	930.47
644.306	938.61
644.504	892.11
644.701	877
644.898	946.36
645.095	894.63
645.293	882.62
645.49	922.91
645.687	901.41
645.884	968.06
646.081	858.98
646.278	881.65
646.475	861.5
646.672	861.5
646.87	917.68
647.067	874.87
647.264	891.53
647.461	834.57
647.658	785.35
647.855	867.89
648.052	852.39
648.249	802.99
648.446	855.68
648.642	855.88
648.839	822.94
649.036	813.64
649.233	805.5
649.43	789.81
649.627	788.65
649.824	807.64
650.021	787.1
650.217	807.25
650.414	808.99
650.611	835.34
650.808	864.4
651.004	857.23
651.201	850.84
651.398	913.03
651.595	837.08
651.791	806.86
651.988	831.47
652.185	793.49
652.381	860.53
652.578	808.02
652.775	829.72
652.971	856.65
653.168	819.65
653.364	871.57
653.561	772.18
653.757	799.5
653.954	825.85
654.15	782.45
654.347	861.3
654.543	829.92
654.74	774.31
654.936	783.61
655.133	805.7
655.329	842.9
655.525	789.62
655.722	822.36
655.918	763.27
656.115	808.02
656.311	753
656.507	689.06
656.704	654.96
656.9	710.76
657.096	682.86
657.292	714.06
657.489	754.74
657.685	754.35
657.881	762.1
658.077	757.45
658.273	755.9
658.47	815
658.666	798.72
658.862	773.15
659.058	741.57
659.254	801.82
659.45	749.51
659.646	791.17
659.842	781.29
660.038	852
660.234	743.7
660.43	785.16
660.626	856.27
660.822	837.47
661.018	814.8
661.214	814.42
661.41	740.41
661.606	842.12
661.802	825.85
661.998	788.65
662.194	779.54
662.39	788.07
662.586	804.34
662.781	803.37
662.977	808.02
663.173	816.16
663.369	809.96
663.564	784.19
663.76	842.32
663.956	781.87
664.152	811.32
664.347	738.27
664.543	776.64
664.739	783.42
664.934	721.81
665.13	714.06
665.326	804.54
665.521	800.47
665.717	724.71
665.912	715.8
666.108	700.69
666.304	746.8
666.499	774.7
666.695	713.47
666.89	750.29
667.086	806.86
667.281	787.49
667.477	806.86
667.672	771.79
667.867	772.76
668.063	764.62
668.258	743.7
668.454	751.64
668.649	840.18
668.844	790.97
669.04	791.17
669.235	740.6
669.43	711.15
669.626	689.45
669.821	760.17
670.016	728.2
670.211	752.42
670.407	718.51
670.602	769.85
670.797	748.15
670.992	746.22
671.187	705.14
671.382	780.32
671.578	733.43
671.773	786.52
671.968	737.89
672.163	734.21
672.358	738.08
672.553	707.66
672.748	743.31
672.943	796.98
673.138	742.73
673.333	761.33
673.528	724.13
673.723	752.8
673.918	718.51
674.113	697.2
674.308	789.23
674.503	741.37
674.698	785.94
674.892	747.57
675.087	756.29
675.282	750.67
675.477	716.38
675.672	756.68
675.867	732.27
676.061	697.78
676.256	707.66
676.451	725.29
676.646	750.48
676.84	720.64
677.035	680.92
677.23	697.01
677.424	743.31
677.619	747.19
677.814	746.22
678.008	747.77
678.203	676.27
678.397	679.37
678.592	735.76
678.787	780.32
678.981	709.02
679.176	723.94
679.37	747.96
679.565	696.23
679.759	708.44
679.954	700.11
680.148	762.69
680.342	777.22
680.537	711.92
680.731	699.33
680.926	741.57
681.12	718.9
681.314	685.57
681.509	716.77
681.703	713.86
681.897	726.84
682.092	691.19
682.286	710.76
682.48	760.17
682.674	715.41
682.869	697.78
683.063	716.19
683.257	748.74
683.451	676.27
683.645	729.75
683.839	691.97
684.034	677.63
684.228	707.27
684.422	649.15
684.616	697.97
684.81	708.44
685.004	731.69
685.198	689.64
685.392	742.73
685.586	669.3
685.78	708.63
685.974	707.86
686.168	703.01
686.362	735.37
686.556	609.82
686.75	600.91
686.944	591.41
687.138	625.9
687.331	506.55
687.525	536.58
687.719	492.6
687.913	535.03
688.107	529.03
688.301	511.59
688.494	568.74
688.688	518.95
688.882	479.04
689.076	486.98
689.269	531.93
689.463	592.19
689.657	543.36
689.85	508.3
690.044	578.43
690.238	578.43
690.431	510.23
690.625	560.61
690.818	573.01
691.012	578.63
691.205	585.99
691.399	578.63
691.593	633.26
691.786	663.1
691.98	680.34
692.173	685.96
692.366	678.21
692.56	657.48
692.753	699.33
692.947	642.37
693.14	677.24
693.333	672.98
693.527	630.94
693.72	700.88
693.914	669.69
694.107	650.89
694.3	632.1
694.493	627.06
694.687	709.02
694.88	654.77
695.073	703.21
695.266	712.31
695.46	682.86
695.653	702.62
695.846	762.49
696.039	654.77
696.232	691
696.425	738.47
696.618	725.29
696.812	750.48
697.005	812.67
697.198	851.42
697.391	793.1
697.584	806.28
697.777	849.87
697.97	792.72
698.163	834.37
698.356	824.3
698.549	901.41
698.742	872.54
698.935	807.83
699.127	866.92
699.32	853.75
699.513	821.97
699.706	853.36
699.899	868.86
700.092	846.38
700.285	866.53
700.477	835.34
700.67	884.55
700.863	889.59
701.056	954.11
701.248	930.47
701.441	968.83
701.634	896.18
701.826	983.56
702.019	915.94
702.212	991.11
702.404	903.35
702.597	937.64
702.79	982.4
702.982	961.86
703.175	1029.67
703.367	1058.54
703.56	1042.84
703.752	1069.19
703.945	1046.91
704.137	1086.83
704.33	1098.06
704.522	1107.36
704.715	1101.74
704.907	1129.64
705.1	1150.18
705.292	1171.49
705.484	1134.68
705.677	1146.31
705.869	1188.93
706.061	1208.89
706.254	1244.73
706.446	1209.66
706.638	1213.92
706.831	1254.61
707.023	1256.35
707.215	1319.71
707.407	1299.37
707.599	1307.5
707.792	1344.9
707.984	1331.72
708.176	1379.38
708.368	1319.13
708.56	1361.75
708.752	1356.13
708.944	1337.73
709.136	1401.28
709.329	1376.48
709.521	1464.63
709.713	1473.93
709.905	1459.21
710.097	1504.54
710.289	1459.4
710.481	1461.14
710.672	1481.49
710.864	1519.27
711.056	1561.7
711.248	1558.99
711.44	1556.86
711.632	1558.6
711.824	1581.27
712.016	1640.55
712.207	1630.67
712.399	1653.15
712.591	1724.45
712.783	1670.59
712.975	1676.2
713.166	1645.2
713.358	1682.02
713.55	1770.95
713.741	1737.62
713.933	1748.47
714.125	1744.6
714.316	1737.04
714.508	1820.55
714.7	1830.81
714.891	1761.65
715.083	1850
715.274	1772.11
715.466	1831.59
715.657	1859.1
715.849	1750.22
716.04	1803.88
716.232	1780.44
716.423	1795.16
716.615	1755.45
716.806	1697.32
716.998	1661.48
717.189	1634.16
717.381	1560.54
717.572	1564.02
717.763	1595.41
717.955	1573.32
718.146	1523.73
718.337	1475.09
718.528	1453.2
718.72	1409.61
718.911	1474.13
719.102	1409.03
719.293	1467.73
719.485	1446.23
719.676	1416.39
719.867	1399.34
720.058	1426.08
720.249	1419.1
720.44	1467.73
720.632	1480.13
720.823	1584.76
721.014	1650.05
721.205	1698.68
721.396	1754.09
721.587	1826.16
721.778	1893.78
721.969	1902.5
722.16	1983.49
722.351	1971.09
722.542	2066.22
722.733	2084.62
722.924	1973.22
723.115	2055.37
723.305	2036.57
723.496	2071.45
723.687	1939.31
723.878	1957.91
724.069	1946.87
724.26	1970.31
724.45	1941.64
724.641	1881.38
724.832	1968.18
725.023	1903.86
725.213	1913.93
725.404	1903.66
725.595	1900.95
725.785	1913.93
725.976	1962.37
726.167	1967.99
726.357	1992.01
726.548	2086.37
726.739	1985.23
726.929	2112.91
727.12	2104.58
727.31	2109.42
727.501	2065.25
727.691	2094.12
727.882	2133.64
728.072	2178.4
728.263	2144.1
728.453	2189.63
728.644	2209.78
728.834	2192.73
729.024	2174.72
729.215	2168.52
729.405	2207.07
729.596	2260.74
729.786	2294.45
729.976	2320.22
730.167	2316.93
730.357	2282.63
730.547	2260.74
730.737	2350.44
730.928	2343.66
731.118	2400.82
731.308	2370.59
731.498	2389.39
731.688	2477.16
731.879	2456.23
732.069	2552.14
732.259	2509.32
732.449	2613.94
732.639	2673.42
732.829	2708.1
733.019	2707.91
733.209	2812.14
733.399	2807.88
733.589	2897.97
733.779	2912.31
733.969	2912.31
734.159	2999.11
734.349	2991.36
734.539	2995.82
734.729	3075.25
734.919	3063.24
735.109	3086.49
735.299	3058.59
735.488	3132.8
735.678	3117.68
735.868	3105.67
736.058	3090.95
736.248	3102.57
736.437	3056.07
736.627	3041.73
736.817	3157.98
737.007	3140.55
737.196	3191.89
737.386	3152.95
737.576	3150.81
737.765	3213.98
737.955	3163.21
738.144	3294.19
738.334	3277.72
738.524	3236.64
738.713	3275.59
738.903	3241.1
739.092	3344.17
739.282	3335.46
739.471	3275.39
739.661	3319.76
739.85	3378.27
740.04	3421.67
740.229	3368.78
740.419	3431.94
740.608	3424.97
740.797	3421.87
740.987	3505.18
741.176	3467.59
741.365	3460.03
741.555	3444.73
741.744	3516.22
741.933	3462.17
742.123	3467.78
742.312	3535.02
742.501	3565.43
742.69	3600.7
742.88	3534.24
743.069	3599.15
743.258	3597.21
743.447	3599.53
743.636	3618.52
743.825	3555.55
744.014	3593.33
744.204	3588.68
744.393	3586.75
744.582	3650.68
744.771	3699.12
744.96	3588.1
745.149	3664.05
745.338	3658.63
745.527	3737.87
745.716	3623.36
745.905	3643.71
746.094	3722.37
746.283	3722.76
746.471	3683.62
746.66	3742.52
746.849	3714.04
747.038	3710.55
747.227	3644.29
747.416	3712.49
747.604	3688.66
747.793	3689.24
747.982	3721.98
748.171	3726.44
748.359	3717.52
748.548	3734.38
748.737	3714.42
748.926	3714.04
749.114	3627.04
749.303	3687.88
749.491	3688.66
749.68	3624.33
749.869	3733.8
750.057	3646.03
750.246	3653.2
750.434	3679.36
750.623	3686.14
750.811	3678.78
751	3727.41
751.188	3646.81
751.377	3624.33
751.565	3612.51
751.754	3615.42
751.942	3638.86
752.131	3684.01
752.319	3645.64
752.507	3588.49
752.696	3636.93
752.884	3672.19
753.072	3637.31
753.261	3635.76
753.449	3632.08
753.637	3630.53
753.825	3695.44
754.014	3623.56
754.202	3647.39
754.39	3680.52
754.578	3661.53
754.766	3582.87
754.955	3574.15
755.143	3645.45
755.331	3593.72
755.519	3627.43
755.707	3596.05
755.895	3579.96
756.083	3581.32
756.271	3541.02
756.459	3567.95
756.647	3640.8
756.835	3544.51
757.023	3583.65
757.211	3552.06
757.399	3552.06
757.587	3565.43
757.775	3474.76
757.963	3508.67
758.151	3516.8
758.339	3475.15
758.526	3430.2
758.714	3466.04
758.902	3395.71
759.09	3263.19
759.278	3061.3
759.465	2817.38
759.653	2502.15
759.841	2199.52
760.028	1890.29
760.216	1625.05
760.404	1548.72
760.591	1265.07
760.779	1068.42
760.967	927.56
761.154	767.34
761.342	812.87
761.529	797.56
761.717	824.49
761.905	836.7
762.092	923.3
762.28	811.51
762.467	847.35
762.655	775.86
762.842	807.44
763.029	788.45
763.217	769.85
763.404	815.77
763.592	815.39
763.779	796.2
763.966	864.4
764.154	912.26
764.341	938.22
764.528	949.46
764.716	1017.27
764.903	1073.46
765.09	1143.4
765.277	1206.37
765.465	1363.69
765.652	1413.29
765.839	1510.16
766.026	1657.41
766.213	1705.46
766.4	1788
766.588	1989.11
766.775	2023.21
766.962	2114.65
767.149	2209.01
767.336	2344.83
767.523	2354.51
767.71	2450.61
767.897	2583.72
768.084	2689.31
768.271	2689.11
768.458	2789.28
768.645	2817.18
768.832	2808.85
769.019	2870.46
769.206	2853.61
769.392	2925.1
769.579	3040.57
769.766	3032.63
769.953	3018.87
770.14	3060.33
770.327	3066.15
770.513	3100.25
770.7	3160.31
770.887	3054.13
771.073	3133.18
771.26	3103.54
771.447	3098.31
771.634	3103.35
771.82	3184.53
772.007	3098.89
772.193	3168.83
772.38	3148.49
772.567	3129.11
772.753	3131.25
772.94	3172.71
773.126	3178.71
773.313	3173.48
773.499	3148.3
773.686	3213.01
773.872	3166.9
774.059	3155.27
774.245	3101.41
774.432	3107.8
774.618	3041.73
774.804	3125.05
774.991	3059.56
775.177	3114.97
775.363	3086.49
775.55	3127.37
775.736	3031.27
775.922	3098.31
776.109	3101.22
776.295	3073.51
776.481	3128.15
776.667	3138.22
776.853	3018.48
777.04	3018.29
777.226	3016.55
777.412	3132.8
777.598	3030.5
777.784	3046.97
777.97	2999.5
778.156	3042.9
778.342	2992.52
778.528	3006.67
778.715	2961.91
778.901	2951.45
779.087	2987.29
779.272	3010.35
779.458	2949.32
779.644	2981.29
779.83	2943.31
780.016	3030.3
780.202	2929.94
780.388	2968.89
780.574	2934.79
780.76	2914.83
780.946	2949.12
781.131	2960.55
781.317	2889.06
781.503	2901.07
781.689	2893.52
781.874	3036.89
782.06	2909.21
782.246	2893.71
782.432	2888.48
782.617	2893.91
782.803	2944.86
782.989	2844.11
783.174	2840.62
783.36	2817.76
783.545	2841.98
783.731	2848.18
783.916	2741.43
784.102	2842.56
784.288	2811.37
784.473	2818.93
784.659	2775.33
784.844	2855.35
785.029	2781.73
785.215	2758.67
785.4	2715.27
785.586	2848.76
785.771	2698.03
785.956	2798.58
786.142	2758.48
786.327	2754.41
786.512	2726.31
786.698	2709.85
786.883	2654.24
787.068	2713.33
787.254	2709.85
787.439	2667.41
787.624	2636.61
787.809	2632.35
787.994	2622.85
788.18	2687.37
788.365	2595.73
788.55	2607.74
788.735	2630.8
788.92	2621.88
789.105	2555.82
789.29	2625.57
789.475	2539.35
789.66	2541.87
789.845	2529.27
790.03	2524.43
790.215	2572.87
790.4	2595.15
790.585	2578.87
790.77	2555.62
790.955	2475.02
791.14	2515.71
791.325	2578.68
791.51	2438.02
791.695	2536.05
791.879	2496.53
792.064	2469.41
792.249	2558.14
792.434	2507.19
792.618	2527.14
792.803	2539.93
792.988	2475.02
793.173	2513.97
793.357	2549.42
793.542	2492.27
793.727	2531.79
793.911	2528.5
794.096	2515.32
794.281	2536.05
794.465	2585.65
794.65	2526.56
794.834	2574.22
795.019	2581
795.203	2594.95
795.388	2588.17
795.572	2578.48
795.757	2573.45
795.941	2552.72
796.126	2539.93
796.31	2458.56
796.494	2552.52
796.679	2523.65
796.863	2511.64
797.048	2594.18
797.232	2517.45
797.416	2539.74
797.601	2578.87
797.785	2619.37
797.969	2592.63
798.153	2557.95
798.338	2589.92
798.522	2624.6
798.706	2602.7
798.89	2608.71
799.074	2716.63
799.258	2664.9
799.443	2611.23
799.627	2564.15
799.811	2639.71
799.995	2561.05
800.179	2520.36
800.363	2581.2
800.547	2559.89
800.731	2631.77
800.915	2508.93
801.099	2553.69
801.283	2560.85
801.467	2550.2
801.651	2533.92
801.835	2586.82
802.019	2602.51
802.202	2547.29
802.386	2515.52
802.57	2480.45
802.754	2533.54
802.938	2497.89
803.121	2471.92
803.305	2591.66
803.489	2538.57
803.673	2565.7
803.856	2581
804.04	2527.34
804.224	2574.8
804.407	2484.91
804.591	2498.47
804.775	2506.02
804.958	2555.62
805.142	2621.69
805.326	2536.83
805.509	2585.46
805.693	2573.64
805.876	2598.83
806.06	2550.39
806.243	2583.13
806.427	2612.78
806.61	2649.98
806.794	2559.5
806.977	2635.83
807.16	2552.72
807.344	2560.08
807.527	2606.58
807.71	2545.74
807.894	2537.41
808.077	2645.72
808.26	2530.82
808.444	2555.43
808.627	2610.26
808.81	2492.07
808.993	2468.82
809.177	2451.58
809.36	2482.39
809.543	2462.43
809.726	2384.54
809.909	2424.84
810.092	2404.5
810.276	2405.27
810.459	2416.32
810.642	2419.42
810.825	2356.26
811.008	2357.61
811.191	2291.55
811.374	2280.89
811.557	2290.96
811.74	2365.94
811.923	2256.09
812.106	2240.4
812.289	2235.94
812.472	2180.53
812.654	2219.67
812.837	2177.62
813.02	2128.22
813.203	2119.3
813.386	2031.54
813.569	2009.26
813.751	1917.23
813.934	1975.16
814.117	1924.39
814.3	1875.18
814.482	1836.63
814.665	1788.38
814.848	1809.7
815.03	1697.71
815.213	1729.29
815.396	1700.81
815.578	1713.4
815.761	1677.37
815.943	1727.74
816.126	1622.54
816.309	1598.51
816.491	1516.56
816.674	1492.73
816.856	1533.02
817.039	1531.28
817.221	1605.68
817.403	1537.48
817.586	1536.32
817.768	1577.97
817.951	1477.23
818.133	1498.34
818.315	1541.55
818.498	1561.7
818.68	1603.74
818.862	1579.33
819.045	1602.39
819.227	1605.1
819.409	1597.54
819.591	1593.47
819.774	1597.93
819.956	1562.47
820.138	1656.25
820.32	1627.57
820.502	1687.83
820.684	1733.17
820.866	1743.63
821.048	1812.21
821.231	1824.42
821.413	1762.03
821.595	1765.72
821.777	1826.75
821.959	1765.91
822.141	1851.35
822.323	1701.39
822.505	1616.53
822.686	1625.05
822.868	1505.13
823.05	1382.48
823.232	1389.26
823.414	1358.85
823.596	1414.65
823.778	1397.4
823.96	1448.16
824.141	1456.11
824.323	1450.1
824.505	1548.14
824.687	1580.69
824.868	1624.47
825.05	1717.28
825.232	1753.9
825.413	1805.43
825.595	1763.39
825.777	1689.77
825.958	1733.94
826.14	1700.23
826.321	1758.16
826.503	1718.63
826.685	1783.93
826.866	1769.4
827.048	1735.88
827.229	1693.06
827.411	1655.09
827.592	1609.94
827.773	1651.02
827.955	1560.15
828.136	1580.11
828.318	1526.24
828.499	1580.49
828.68	1501.25
828.862	1575.46
829.043	1580.3
829.224	1558.41
829.406	1537.09
829.587	1540.97
829.768	1552.01
829.949	1558.6
830.131	1582.82
830.312	1623.7
830.493	1594.64
830.674	1598.32
830.855	1558.41
831.036	1577.97
831.218	1649.66
831.399	1639
831.58	1592.12
831.761	1579.52
831.942	1603.36
832.123	1573.52
832.304	1522.37
832.485	1537.67
832.666	1532.25
832.847	1594.44
833.028	1566.35
833.209	1571
833.389	1530.12
833.57	1509.78
833.751	1503.58
833.932	1595.02
834.113	1551.82
834.294	1537.48
834.475	1609.56
834.655	1621.95
834.836	1616.72
835.017	1608.39
835.198	1559.37
835.378	1570.03
835.559	1614.01
835.74	1621.95
835.92	1590.57
836.101	1587.08
836.281	1624.86
836.462	1593.86
836.643	1649.27
836.823	1654.89
837.004	1660.7
837.184	1710.69
837.365	1695.58
837.545	1672.33
837.726	1628.93
837.906	1682.21
838.087	1664
838.267	1648.5
838.448	1604.71
838.628	1640.17
838.808	1624.47
838.989	1693.25
839.169	1626.41
839.349	1637.65
839.53	1669.04
839.71	1685.31
839.89	1624.67
840.07	1671.75
840.251	1597.35
840.431	1712.82
840.611	1638.04
840.791	1608.2
840.971	1667.49
841.151	1624.09
841.332	1602.97
841.512	1690.93
841.692	1585.14
841.872	1640.75
842.052	1618.27
842.232	1653.54
842.412	1551.04
842.592	1600.45
842.772	1620.4
842.952	1655.86
843.132	1612.85
843.312	1601.03
843.492	1575.65
843.672	1607.62
843.851	1583.01
844.031	1593.67
844.211	1626.6
844.391	1575.65
844.571	1589.02
844.751	1577.01
844.93	1575.84
845.11	1582.04
845.29	1627.57
845.47	1615.95
845.649	1595.8
845.829	1611.3
846.009	1603.16
846.188	1623.7
846.368	1586.11
846.547	1569.26
846.727	1636.87
846.907	1544.26
847.086	1595.61
847.266	1620.79
847.445	1580.88
847.625	1558.6
847.804	1581.85
847.984	1563.64
848.163	1528.57
848.343	1528.57
848.522	1555.69
848.701	1590.57
848.881	1549.3
849.06	1556.86
849.239	1564.02
849.419	1560.92
849.598	1447
849.777	1439.45
849.957	1480.13
850.136	1425.88
850.315	1414.26
850.494	1416.78
850.674	1441.38
850.853	1486.33
851.032	1421.23
851.211	1504.74
851.39	1454.75
851.569	1424.53
851.748	1403.6
851.927	1471.41
852.107	1419.88
852.286	1400.89
852.465	1390.43
852.644	1445.64
852.823	1439.64
853.002	1459.59
853.181	1447.78
853.359	1431.7
853.538	1367.18
853.717	1439.64
853.896	1354
854.075	1316.42
854.254	1249.19
854.433	1212.18
854.611	1299.95
854.79	1217.02
854.969	1265.27
855.148	1316.42
855.327	1291.23
855.505	1336.18
855.684	1304.98
855.863	1317.38
856.041	1271.66
856.22	1316.61
856.399	1298.01
856.577	1421.04
856.756	1380.93
856.934	1502.41
857.113	1459.01
857.291	1382.68
857.47	1343.54
857.648	1383.26
857.827	1408.64
858.005	1416.58
858.184	1366.79
858.362	1439.06
858.541	1376.86
858.719	1358.46
858.898	1359.62
859.076	1345.09
859.254	1418.71
859.433	1374.73
859.611	1333.47
859.789	1285.03
859.967	1411.35
860.146	1386.75
860.324	1301.5
860.502	1322.23
860.68	1292.2
860.859	1307.12
861.037	1313.12
861.215	1338.89
861.393	1334.05
861.571	1340.83
861.749	1278.63
861.927	1339.67
862.105	1343.93
862.283	1333.08
862.461	1303.24
862.639	1299.75
862.817	1284.06
862.995	1303.05
863.173	1293.55
863.351	1305.76
863.529	1323.97
863.707	1345.28
863.885	1316.03
864.063	1241.63
864.241	1244.73
864.418	1331.33
864.596	1265.46
864.774	1250.15
864.952	1284.25
865.129	1271.47
865.307	1244.73
865.485	1190.48
865.663	1255.19
865.84	1195.52
866.018	1206.17
866.196	1092.83
866.373	1089.15
866.551	1073.65
866.728	1049.43
866.906	1060.67
867.084	1135.65
867.261	1138.36
867.439	1148.44
867.616	1172.27
867.794	1173.04
867.971	1168.78
868.149	1157.93
868.326	1240.47
868.503	1184.28
868.681	1217.41
868.858	1166.84
869.035	1112.59
869.213	1170.91
869.39	1166.65
869.567	1225.94
869.745	1156.57
869.922	1176.92
870.099	1160.45
870.276	1217.22
870.454	1201.91
870.631	1188.74
870.808	1182.73
870.985	1186.41
871.162	1219.15
871.339	1180.02
871.517	1111.82
871.694	1095.54
871.871	1151.34
872.048	1155.02
872.225	1146.11
872.402	1172.07
872.579	1116.47
872.756	1167.42
872.933	1112.01
873.11	1125.19
873.287	1164.91
873.463	1117.63
873.64	1125.57
873.817	1138.56
873.994	1115.5
874.171	1102.52
874.348	1113.37
874.524	1046.91
874.701	1096.12
874.878	1037.23
875.055	1108.72
875.231	1089.54
875.408	1121.51
875.585	1051.95
875.762	1107.36
875.938	1062.61
876.115	1051.37
876.291	1075.39
876.468	1044.01
876.645	998.48
876.821	1079.08
876.998	1037.42
877.174	1069.58
877.351	1028.12
877.527	1041.1
877.704	1066.68
877.88	1052.14
878.057	1027.34
878.233	1066.29
878.409	1041.1
878.586	1079.66
878.762	1041.68
878.938	1077.33
879.115	959.34
879.291	1023.47
879.467	994.02
879.644	1006.61
879.82	1011.65
879.996	1012.23
880.172	963.8
880.349	1006.23
880.525	1032.38
880.701	963.02
880.877	956.24
881.053	1007.19
881.229	956.82
881.405	1013.78
881.581	951.4
881.757	984.91
881.933	988.98
882.109	996.93
882.285	1011.46
882.461	945
882.637	999.45
882.813	959.53
882.989	987.05
883.165	1044.59
883.341	950.81
883.517	1027.54
883.693	971.55
883.869	1015.14
884.044	980.46
884.22	1017.46
884.396	1036.84
884.572	962.83
884.747	993.83
884.923	995.76
885.099	1007.39
885.275	997.9
885.45	958.95
885.626	989.37
885.801	954.3
885.977	956.05
886.153	901.8
886.328	959.15
886.504	944.42
886.679	969.41
886.855	947.52
887.03	997.12
887.206	1001
887.381	979.3
887.557	1002.55
887.732	968.25
887.908	985.11
888.083	1004.1
888.258	956.63
888.434	966.12
888.609	975.23
888.784	988.01
888.96	980.26
889.135	943.65
889.31	950.04
889.485	981.23
889.661	967.28
889.836	1014.94
890.011	993.05
890.186	959.53
890.361	945
890.537	941.71
890.712	1001.19
890.887	988.79
891.062	994.41
891.237	1008.94
891.412	937.64
891.587	964.96
891.762	989.95
891.937	987.24
892.112	914.39
892.287	965.54
892.462	926.21
892.637	909.74
892.812	897.53
892.987	881.65
893.161	867.12
893.336	871.18
893.511	885.72
893.686	894.43
893.861	874.28
894.035	871.38
894.21	879.32
894.385	830.5
894.56	863.05
894.734	802.02
894.909	795.43
895.084	821
895.258	765.98
895.433	816.35
895.608	747.77
895.782	740.02
895.957	727.42
896.131	702.04
896.306	689.84
896.48	663.29
896.655	682.47
896.829	636.17
897.004	631.52
897.178	628.42
897.353	600.33
897.527	662.32
897.701	659.03
897.876	613.69
898.05	678.02
898.224	684.99
898.399	662.71
898.573	631.71
898.747	515.08
898.921	586.76
899.096	501.71
899.27	506.36
899.444	536.58
899.618	542.01
899.792	572.81
899.967	576.11
900.141	619.7
900.315	537.16
900.489	556.54
900.663	584.44
900.837	562.93
901.011	517.01
901.185	618.93
901.359	567.78
901.533	568.74
901.707	579.01
901.881	559.64
902.055	516.05
902.229	534.06
902.403	608.08
902.576	550.34
902.75	568.74
902.924	639.08
903.098	601.1
903.272	663.87
903.446	684.22
903.619	671.24
903.793	703.98
903.967	678.6
904.14	743.89
904.314	704.17
904.488	706.69
904.661	746.02
904.835	697.01
905.009	728.78
905.182	778.96
905.356	746.02
905.529	703.59
905.703	679.18
905.876	699.33
906.05	666.78
906.223	634.62
906.397	578.24
906.57	612.73
906.744	564.87
906.917	542.01
907.09	557.31
907.264	550.34
907.437	521.08
907.61	495.7
907.784	505.39
907.957	530.96
908.13	492.21
908.304	544.53
908.477	487.18
908.65	511.59
908.823	478.85
908.996	567.58
909.17	493.38
909.343	483.5
909.516	491.83
909.689	484.46
909.862	477.68
910.035	525.35
910.208	461.6
910.381	444.17
910.554	552.47
910.727	510.04
910.9	473.42
911.073	467.03
911.246	526.9
911.419	533.48
911.592	505.2
911.765	473.62
911.938	453.27
912.11	488.53
912.283	495.12
912.456	540.07
912.629	486.4
912.802	455.02
912.974	407.55
913.147	399.02
913.32	348.45
913.493	392.05
913.665	427.31
913.838	421.3
914.01	401.35
914.183	411.23
914.356	425.37
914.528	459.47
914.701	498.03
914.873	473.23
915.046	424.4
915.218	379.26
915.391	325.98
915.563	367.83
915.736	411.42
915.908	433.9
916.081	419.37
916.253	412.97
916.425	458.5
916.598	456.18
916.77	394.76
916.942	403.87
917.115	332.37
917.287	418.01
917.459	371.9
917.632	365.7
917.804	304.86
917.976	399.22
918.148	379.45
918.32	380.04
918.493	426.15
918.665	456.18
918.837	427.5
919.009	487.18
919.181	473.81
919.353	432.73
919.525	441.65
919.697	452.69
919.869	443.97
920.041	528.83
920.213	549.95
920.385	455.21
920.557	434.67
920.729	475.36
920.901	455.79
921.073	441.26
921.244	448.04
921.416	466.45
921.588	413.75
921.76	448.43
921.932	506.16
922.103	449.01
922.275	439.13
922.447	472.65
922.619	353.1
922.79	449.59
922.962	467.03
923.134	465.87
923.305	394.57
923.477	370.93
923.648	414.52
923.82	406.38
923.991	326.95
924.163	358.72
924.335	370.35
924.506	366.28
924.677	392.24
924.849	359.89
925.02	385.27
925.192	406.97
925.363	371.51
925.535	397.08
925.706	369.38
925.877	419.95
926.049	357.95
926.22	381.78
926.391	389.53
926.562	418.4
926.734	377.52
926.905	404.45
927.076	326.56
927.247	336.64
927.419	321.33
927.59	310.87
927.761	319.78
927.932	290.91
928.103	306.41
928.274	251.19
928.445	265.14
928.616	269.21
928.787	243.25
928.958	290.91
929.129	288.2
929.3	267.86
929.471	242.47
929.642	172.34
929.813	154.9
929.984	252.16
930.155	172.92
930.326	192.1
930.496	181.64
930.667	122.55
930.838	177.38
931.009	122.16
931.18	168.27
931.35	128.75
931.521	169.82
931.692	64.81
931.863	47.37
932.033	114.99
932.204	119.45
932.374	104.91
932.545	70.23
932.716	115.18
932.886	123.9
933.057	55.51
933.227	35.94
933.398	133.98
933.568	40.01
933.739	41.75
933.909	54.35
934.08	97.55
934.25	8.82
934.421	23.93
934.591	65
934.761	46.6
934.932	2.23
935.102	39.62
935.272	51.05
935.443	39.04
935.613	27.03
935.783	59.77
935.953	26.64
936.123	153.54
936.294	35.75
936.464	31.68
936.634	38.65
936.804	-7.46
936.974	-3.78
937.144	34.39
937.314	35.94
937.484	27.42
937.655	14.82
937.825	59
937.995	15.4
938.165	88.83
938.334	40.98
938.504	60.55
938.674	37.1
938.844	82.63
939.014	87.28
939.184	95.61
939.354	150.06
939.524	126.42
939.694	121.19
939.863	71.4
940.033	120.8
940.203	130.88
940.373	111.7
940.542	120.61
940.712	55.12
940.882	83.99
941.051	121.58
941.221	106.27
941.391	144.24
941.56	86.51
941.73	46.01
941.899	185.51
942.069	81.08
942.238	80.7
942.408	54.35
942.577	95.42
942.747	71.59
942.916	29.74
943.086	47.18
943.255	113.44
943.425	109.18
943.594	71.98
943.763	6.68
943.933	34
944.102	4.94
944.271	62.87
944.441	56.28
944.61	40.01
944.779	68.68
944.948	143.28
945.117	19.86
945.287	55.9
945.456	8.62
945.625	33.81
945.794	77.01
945.963	13.66
946.132	91.16
946.301	48.34
946.47	97.75
946.639	6.68
946.808	68.68
946.977	54.54
947.146	95.23
947.315	44.08
947.484	88.45
947.653	36.33
947.822	52.6
947.991	34.78
948.16	121.38
948.329	82.25
948.498	50.28
948.666	43.88
948.835	83.99
949.004	30.13
949.173	5.91
949.341	46.01
949.51	86.51
949.679	112.28
949.847	71.98
950.016	121.58
950.185	111.89
950.353	43.3
950.522	76.43
950.69	90.38
950.859	33.42
951.028	123.71
951.196	77.98
951.365	56.09
951.533	78.95
951.701	72.17
951.87	111.31
952.038	27.22
952.207	58.41
952.375	114.99
952.543	76.43
952.712	69.65
952.88	51.83
953.048	99.88
953.217	95.81
953.385	49.7
953.553	114.6
953.721	28.77
953.89	74.3
954.058	15.4
954.226	14.05
954.394	93.48
954.562	15.21
954.73	70.43
954.898	55.31
955.067	108.98
955.235	35.36
955.403	100.65
955.571	115.57
955.739	97.36
955.907	41.95
956.075	44.27
956.243	31.29
956.41	83.6
956.578	21.6
956.746	19.08
956.914	52.02
957.082	93.87
957.25	108.01
957.418	53.76
957.585	109.76
957.753	106.08
957.921	47.95
958.089	69.07
958.256	91.16
958.424	92.71
958.592	54.35
958.759	60.35
958.927	86.12
959.095	41.37
959.262	77.4
959.43	68.1
959.597	41.56
959.765	59.58
959.932	59
960.1	98.91
960.267	76.05
960.435	34.2
960.602	103.56
960.77	32.26
960.937	44.66
961.104	82.63
961.272	15.02
961.439	61.51
961.606	68.1
961.774	86.7
961.941	74.11
962.108	95.42
962.275	78.56
962.443	117.51
962.61	111.5
962.777	121
962.944	111.11
963.111	84.18
963.278	103.95
963.446	106.08
963.613	84.57
963.78	117.31
963.947	109.76
964.114	73.53
964.281	168.85
964.448	117.7
964.615	83.99
964.782	96
964.949	89.22
965.116	117.51
965.282	118.28
965.449	101.04
965.616	65.58
965.783	103.56
965.95	99.49
966.117	40.59
966.283	81.47
966.45	92.71
966.617	64.42
966.784	114.8
966.95	99.88
967.117	119.64
967.284	57.64
967.45	88.45
967.617	135.33
967.784	112.47
967.95	135.91
968.117	76.05
968.283	139.4
968.45	166.53
968.616	124.1
968.783	160.13
968.949	123.32
969.116	134.56
969.282	90.96
969.449	109.56
969.615	142.11
969.781	64.42
969.948	95.23
970.114	79.92
970.28	167.88
970.447	101.81
970.613	141.14
970.779	100.85
970.945	103.56
971.112	100.85
971.278	84.57
971.444	63.65
971.61	145.79
971.776	85.54
971.942	116.35
972.108	122.35
972.275	115.76
972.441	141.14
972.607	160.91
972.773	90.96
972.939	135.72
973.105	103.95
973.271	47.76
973.437	70.23
973.602	70.43
973.768	115.18
973.934	94.06
974.1	96
974.266	16.95
974.432	100.26
974.598	79.15
974.763	116.54
974.929	59.19
975.095	137.08
975.261	57.25
975.426	53.57
975.592	109.95
975.758	138.82
975.923	34.78
976.089	87.09
976.255	93.1
976.42	104.91
976.586	103.75
976.751	95.61
976.917	179.89
977.082	109.56
977.248	41.17
977.413	20.83
977.579	76.43
977.744	105.69
977.91	65.58
978.075	75.85
978.24	105.5
978.406	92.13
978.571	69.65
978.736	70.23
978.902	99.49
979.067	31.48
979.232	39.43
979.397	103.56
979.563	145.41
979.728	62.68
979.893	104.14
980.058	73.53
980.223	108.4
980.388	74.5
980.554	93.48
980.719	81.28
980.884	98.13
981.049	134.17
981.214	78.37
981.379	95.42
981.544	60.55
981.709	93.1
981.874	72.17
982.039	83.8
982.204	112.66
982.368	93.29
982.533	75.85
982.698	117.51
982.863	102.78
983.028	72.95
983.193	109.18
983.357	96.78
983.522	96.2
983.687	93.87
983.852	90.19
984.016	81.08
984.181	87.67
984.346	119.25
984.51	106.08
984.675	86.7
984.839	114.41
985.004	116.54
985.168	119.64
985.333	119.64
985.498	59.96
985.662	128.55
985.827	108.6
985.991	102.01
986.155	98.13
986.32	118.28
986.484	141.53
986.649	93.1
986.813	29.55
986.977	88.45
987.142	100.65
987.306	52.41
987.47	33.62
987.634	106.46
987.799	103.75
987.963	117.31
988.127	103.56
988.291	143.08
988.455	116.73
988.62	71.2
988.784	120.8
988.948	116.35
989.112	79.73
989.276	118.48
989.44	88.06
989.604	50.86
989.768	53.18
989.932	121.96
990.096	41.75
990.26	56.86
990.424	57.64
990.588	70.81
990.752	149.67
990.915	122.35
991.079	81.08
991.243	78.56
991.407	108.6
991.571	80.89
991.734	108.98
991.898	120.22
992.062	150.06
992.226	83.41
992.389	53.57
992.553	37.1
992.717	70.04
992.88	85.54
993.044	62.68
993.207	84.18
993.371	111.7
993.535	93.87
993.698	65.2
993.862	121
994.025	133.98
994.189	89.03
994.352	90
994.515	106.08
994.679	112.08
994.842	70.23
995.006	119.06
995.169	58.22
995.332	48.92
995.496	105.69
995.659	19.86
995.822	55.31
995.985	62.29
996.149	106.27
996.312	63.26
996.475	122.55
996.638	57.64
996.801	131.46
996.964	136.88
997.128	61.71
997.291	83.21
997.454	103.36
997.617	28.77
997.78	103.17
997.943	59.96
998.106	68.1
998.269	49.31
998.432	60.74
998.595	67.91
998.758	29.35
998.92	30.13
999.083	5.52
999.246	95.23
999.409	39.62
999.572	19.28
999.735	37.88
999.897	70.23
1000.06	52.41
1000.223	60.93
1000.386	98.33
1000.548	95.23
1000.711	79.15
1000.874	62.1
1001.036	29.55
1001.199	108.79
1001.361	36.13
1001.524	53.76
1001.687	80.7
1001.849	26.25
1002.012	56.09
1002.174	75.27
1002.337	77.98
1002.499	56.86
1002.661	73.14
1002.824	38.27
1002.986	48.53
1003.149	63.26
1003.311	18.5
1003.473	114.21
1003.636	45.05
1003.798	103.56
1003.96	62.48
1004.123	59.77
1004.285	62.68
1004.447	59
1004.609	69.85
1004.771	116.73
1004.933	13.85
1005.096	33.42
1005.258	7.07
1005.42	43.88
1005.582	90.58
1005.744	47.18
1005.906	20.63
1006.068	61.9
1006.23	26.83
1006.392	-8.43
1006.554	6.68
1006.716	64.03
1006.878	63.06
1007.04	9.01
1007.202	42.92
1007.363	38.85
1007.525	28.38
1007.687	65.39
1007.849	86.12
1008.011	6.49
1008.172	23.93
1008.334	30.71
1008.496	69.46
1008.658	20.05
1008.819	38.27
1008.981	17.53
1009.143	31.87
1009.304	48.15
1009.466	67.71
1009.627	106.08
1009.789	149.28
1009.95	52.99
1010.112	13.66
1010.273	71.2
1010.435	15.21
1010.596	38.65
1010.758	28
1010.919	17.15
1011.081	16.57
1011.242	49.89
1011.403	51.05
1011.565	37.3
1011.726	74.3
1011.887	1.84
1012.049	15.21
1012.21	55.31
1012.371	67.91
1012.532	3.39
1012.693	34.58
1012.855	17.15
1013.016	40.78
1013.177	71.01
1013.338	18.12
1013.499	104.14
1013.66	48.92
1013.821	76.05
1013.982	58.22
1014.143	24.9
1014.304	15.98
1014.465	77.4
1014.626	71.98
1014.787	23.35
1014.948	120.22
1015.109	-32.07
1015.27	78.56
1015.431	12.3
1015.592	24.32
1015.752	65.39
1015.913	50.47
1016.074	29.93
1016.235	31.48
1016.395	16.18
1016.556	17.92
1016.717	20.44
1016.877	95.03
1017.038	-8.04
1017.199	44.46
1017.359	32.65
1017.52	27.61
1017.681	-3.2
1017.841	38.65
1018.002	29.55
1018.162	9.4
1018.323	72.36
1018.483	6.3
1018.644	26.06
1018.804	-11.92
1018.964	-26.64
1019.125	16.37
1019.285	27.8
1019.446	-20.83
1019.606	23.73
1019.766	-17.34
1019.926	29.16
1020.087	24.7
1020.247	-29.35
1020.407	34.58
1020.567	70.81
1020.728	23.93
1020.888	-26.45
1021.048	-1.26
1021.208	3.39
1021.368	14.05
1021.528	93.29
1021.688	44.66
1021.848	38.65
1022.008	46.4
1022.168	25.48
1022.328	18.31
1022.488	32.45
1022.648	16.95
1022.808	12.11
1022.968	45.63
1023.128	20.44
1023.288	4.75
1023.448	14.24
1023.608	41.56
1023.767	25.48
1023.927	5.72
1024.087	18.5
1024.247	-4.17
1024.406	15.21
1024.566	-9.01
1024.726	-11.72
1024.885	26.45
1025.045	33.23
1025.205	12.5
1025.364	4.75
1025.524	9.2
1025.683	15.98
1025.843	10.17
1026.003	34.39
1026.162	67.33
1026.321	54.54
1026.481	14.63
1026.64	30.52
1026.8	19.28
1026.959	32.07
1027.119	10.17
1027.278	31.1
1027.437	-13.27
1027.597	28.77
1027.756	34.2
1027.915	42.72
1028.074	40.98
1028.234	2.81
1028.393	32.84
1028.552	22.77
1028.711	-50.66
1028.87	54.15
1029.03	2.62
1029.189	20.44
1029.348	-43.11
1029.507	-1.26
1029.666	13.27
1029.825	-15.02
1029.984	-6.3
1030.143	17.34
1030.302	1.84
1030.461	-29.93
1030.62	25.28
1030.779	45.43
1030.938	-2.03
1031.097	-6.68
1031.255	34.39
1031.414	58.22
1031.573	67.13
1031.732	-19.08
1031.891	-1.84
1032.049	67.71
1032.208	13.47
1032.367	23.54
1032.525	5.72
1032.684	7.85
1032.843	14.63
1033.001	-52.8
1033.16	133.39
1033.319	40.78
1033.477	56.86
1033.636	16.76
1033.794	-20.05
1033.953	28.19
1034.111	69.85
1034.27	-15.79
1034.428	30.9
1034.587	-22.38
1034.745	22.96
1034.903	1.26
1035.062	34.2
1035.22	-0.1
1035.378	20.05
1035.537	7.85
1035.695	47.95
1035.853	-3.78
1036.011	45.24
1036.17	30.32
1036.328	-32.26
1036.486	4.94
1036.644	11.53
1036.802	-71.2
1036.96	10.37
1037.119	9.59
1037.277	-10.95
1037.435	-43.11
1037.593	-27.61
1037.751	-1.26
1037.909	49.5
1038.067	49.5
