Data from oakcork_FLMT105791__253__17-33-24-054.txt Node

Date: Mon Mar 20 17:33:24 GMT 2023
User: antho
Spectrometer: FLMT10579
Trigger mode: 0
Integration Time (sec): 1.000000E-1
Scans to average: 10
Electric dark correction enabled: true
Nonlinearity correction enabled: false
Boxcar width: 0
XAxis mode: Wavelengths
Number of Pixels in Spectrum: 3648
>>>>>Begin Spectral Data<<<<<
345.248	-149.83
345.464	-149.83
345.681	-149.83
345.898	-168.82
346.114	-135.49
346.331	-33.97
346.548	21.64
346.764	-12.27
346.981	2.45
347.197	-13.05
347.414	27.25
347.631	-9.56
347.847	68.91
348.064	-10.33
348.28	23.38
348.497	-60.32
348.713	-4.13
348.93	34.23
349.146	16.21
349.363	4.78
349.579	4
349.796	-9.36
350.012	-9.56
350.229	42.17
350.445	-33.39
350.661	-13.05
350.878	-0.84
351.094	-3.16
351.311	12.92
351.527	27.45
351.743	-33.78
351.96	38.49
352.176	17.76
352.392	1.1
352.609	38.1
352.825	-20.21
353.041	5.36
353.257	-24.67
353.474	13.89
353.69	8.46
353.906	18.73
354.122	-9.75
354.339	47.98
354.555	6.91
354.771	-12.08
354.987	42.75
355.203	53.02
355.42	8.07
355.636	-3.94
355.852	4.59
356.068	0.71
356.284	-3.94
356.5	35.97
356.716	35.2
356.932	2.65
357.148	-4.33
357.364	10.4
357.58	15.82
357.796	56.51
358.012	33.65
358.228	12.72
358.444	-47.34
358.66	49.92
358.876	6.14
359.092	-26.41
359.308	19.89
359.524	56.12
359.74	0.52
359.956	-12.08
360.172	13.11
360.388	45.08
360.604	-7.04
360.819	94.1
361.035	13.89
361.251	34.81
361.467	3.04
361.683	32.1
361.898	21.64
362.114	27.84
362.33	49.92
362.546	49.53
362.762	29.77
362.977	11.56
363.193	-25.25
363.409	26.67
363.624	-16.34
363.84	9.24
364.056	-9.95
364.271	36.75
364.487	22.22
364.703	21.83
364.918	-2.39
365.134	-7.81
365.35	-3.55
365.565	113.08
365.781	-19.25
365.996	31.71
366.212	74.72
366.427	15.44
366.643	6.91
366.858	-9.36
367.074	-20.6
367.289	69.3
367.505	78.98
367.72	-13.24
367.936	-14.01
368.151	37.91
368.367	20.09
368.582	32.48
368.798	-25.45
369.013	60
369.228	30.35
369.444	16.99
369.659	41.78
369.874	10.98
370.09	53.99
370.305	-40.36
370.52	19.5
370.736	61.93
370.951	6.91
371.166	66.39
371.381	62.32
371.597	35.97
371.812	-34.94
372.027	-9.36
372.242	36.36
372.458	87.12
372.673	-14.79
372.888	7.3
373.103	22.8
373.318	99.13
373.533	16.4
373.749	34.81
373.964	-19.25
374.179	52.44
374.394	-10.91
374.609	47.6
374.824	1.29
375.039	44.88
375.254	-9.75
375.469	76.08
375.684	16.99
375.899	56.9
376.114	4.2
376.329	16.6
376.544	26.09
376.759	57.67
376.974	-8.98
377.189	1.87
377.404	-0.84
377.619	39.46
377.834	-31.06
378.049	-22.54
378.264	4.39
378.478	24.35
378.693	12.14
378.908	36.75
379.123	6.14
379.338	45.08
379.553	40.62
379.767	22.02
379.982	23.96
380.197	58.06
380.412	32.87
380.626	30.93
380.841	107.85
381.056	30.93
381.271	68.33
381.485	25.9
381.7	23.96
381.915	26.87
382.129	19.31
382.344	22.41
382.559	13.5
382.773	58.45
382.988	-21.96
383.202	48.37
383.417	-8.01
383.632	102.43
383.846	27.06
384.061	7.69
384.275	3.81
384.49	34.81
384.704	45.47
384.919	45.66
385.133	34.03
385.348	40.23
385.562	-13.82
385.777	54.57
385.991	21.44
386.206	1.68
386.42	18.54
386.634	51.47
386.849	42.95
387.063	34.81
387.277	0.52
387.492	14.27
387.706	10.59
387.92	-5.1
388.135	52.05
388.349	39.85
388.563	18.92
388.778	33.07
388.992	51.67
389.206	51.08
389.42	122.96
389.635	11.95
389.849	65.03
390.063	74.53
390.277	27.25
390.491	89.83
390.706	56.32
390.92	53.8
391.134	35.97
391.348	69.49
391.562	1.68
391.776	26.29
391.99	28.42
392.205	46.43
392.419	25.32
392.633	8.65
392.847	84.6
393.061	-2.58
393.275	80.53
393.489	36.36
393.703	39.27
393.917	59.22
394.131	13.5
394.345	54.38
394.559	60.38
394.773	30.55
394.986	61.35
395.2	26.67
395.414	62.32
395.628	16.02
395.842	61.55
396.056	8.85
396.27	-4.52
396.484	46.43
396.697	61.93
396.911	72.2
397.125	66.78
397.339	63.48
397.553	43.53
397.766	108.43
397.98	91.97
398.194	71.82
398.408	14.66
398.621	70.85
398.835	80.15
399.049	51.47
399.262	75.5
399.476	61.93
399.69	81.31
399.903	125.48
400.117	41.01
400.331	66.58
400.544	59.61
400.758	128.97
400.971	78.6
401.185	86.35
401.398	4.97
401.612	87.9
401.826	71.04
402.039	87.51
402.253	30.55
402.466	74.92
402.68	73.37
402.893	61.93
403.106	51.47
403.32	60.97
403.533	69.88
403.747	57.28
403.96	63.1
404.174	64.65
404.387	20.86
404.6	75.5
404.814	98.75
405.027	59.22
405.24	69.3
405.454	46.05
405.667	106.88
405.88	14.66
406.094	98.75
406.307	80.92
406.52	92.74
406.733	49.15
406.947	32.87
407.16	110.37
407.373	105.14
407.586	33.65
407.799	42.75
408.012	84.02
408.226	112.12
408.439	106.88
408.652	43.14
408.865	80.73
409.078	100.68
409.291	77.82
409.504	39.07
409.717	73.95
409.93	87.51
410.143	114.25
410.357	43.33
410.57	34.03
410.783	81.31
410.996	88.67
411.209	62.9
411.421	112.7
411.634	60
411.847	58.64
412.06	77.63
412.273	50.7
412.486	95.84
412.699	151.64
412.912	71.82
413.125	93.52
413.338	74.92
413.55	98.75
413.763	89.83
413.976	94.29
414.189	49.34
414.402	56.12
414.615	119.67
414.827	37.91
415.04	126.65
415.253	81.31
415.466	104.56
415.678	151.06
415.891	82.67
416.104	109.6
416.316	87.12
416.529	50.7
416.742	88.48
416.954	94.1
417.167	64.26
417.38	82.08
417.592	111.73
417.805	49.53
418.017	36.75
418.23	109.79
418.442	62.52
418.655	58.83
418.868	93.9
419.08	108.43
419.293	102.04
419.505	91.19
419.718	94.1
419.93	112.31
420.142	82.08
420.355	148.35
420.567	139.24
420.78	99.91
420.992	93.71
421.205	149.31
421.417	50.5
421.629	55.73
421.842	92.16
422.054	37.33
422.266	124.9
422.479	145.25
422.691	61.16
422.903	126.26
423.115	78.02
423.328	75.5
423.54	79.76
423.752	96.62
423.964	53.99
424.177	103.78
424.389	82.08
424.601	185.35
424.813	106.69
425.025	120.45
425.238	133.81
425.45	81.31
425.662	58.83
425.874	343.26
426.086	87.7
426.298	99.91
426.51	95.07
426.722	122.38
426.934	93.13
427.146	117.35
427.358	64.45
427.57	129.94
427.782	94.29
427.994	90.22
428.206	74.33
428.418	27.06
428.63	130.71
428.842	111.53
429.054	126.45
429.266	134.01
429.478	55.93
429.69	94.48
429.902	66.2
430.114	142.73
430.325	92.16
430.537	108.24
430.749	98.55
430.961	50.31
431.173	63.29
431.384	134.2
431.596	35.39
431.808	81.89
432.02	98.17
432.231	136.72
432.443	139.63
432.655	131.49
432.867	72.98
433.078	99.72
433.29	176.44
433.502	133.62
433.713	140.4
433.925	115.22
434.136	172.56
434.348	97.39
434.56	84.8
434.771	214.61
434.983	66.58
435.194	102.43
435.406	88.28
435.617	134.01
435.829	170.43
436.04	120.45
436.252	138.85
436.463	178.18
436.675	146.8
436.886	106.69
437.098	139.05
437.309	182.06
437.521	105.14
437.732	149.51
437.943	109.98
438.155	144.28
438.366	88.28
438.578	174.31
438.789	138.85
439	146.41
439.211	112.12
439.423	150.48
439.634	162.88
439.845	153.19
440.057	149.51
440.268	181.28
440.479	131.1
440.69	152.61
440.902	131.88
441.113	133.23
441.324	149.9
441.535	143.31
441.746	196.4
441.957	102.62
442.168	102.23
442.38	154.16
442.591	181.67
442.802	138.66
443.013	111.53
443.224	147.57
443.435	125.48
443.646	152.61
443.857	131.49
444.068	126.26
444.279	121.41
444.49	199.11
444.701	148.54
444.912	216.35
445.123	172.37
445.334	140.6
445.545	169.08
445.756	166.75
445.967	115.8
446.178	179.54
446.388	193.3
446.599	180.12
446.81	173.15
447.021	163.07
447.232	205.31
447.443	207.24
447.653	131.3
447.864	201.43
448.075	159.97
448.286	187.48
448.496	197.75
448.707	198.72
448.918	174.89
449.129	255.1
449.339	135.75
449.55	171.98
449.761	159.58
449.971	203.95
450.182	141.76
450.393	189.23
450.603	177.02
450.814	191.75
451.024	185.35
451.235	196.01
451.446	236.5
451.656	246.77
451.867	165.4
452.077	208.02
452.288	220.42
452.498	247.93
452.709	187.48
452.919	193.68
453.13	156.29
453.34	219.26
453.55	151.64
453.761	211.89
453.971	213.25
454.182	200.08
454.392	172.56
454.602	234.37
454.813	223.13
455.023	233.01
455.233	168.69
455.444	224.29
455.654	149.12
455.864	195.23
456.075	186.51
456.285	193.1
456.495	176.63
456.705	235.73
456.916	248.71
457.126	256.84
457.336	187.87
457.546	153.38
457.756	173.73
457.967	234.37
458.177	184.58
458.387	210.54
458.597	168.69
458.807	199.5
459.017	178.76
459.227	202.79
459.437	179.93
459.647	257.23
459.857	225.65
460.068	173.15
460.278	255.1
460.488	225.65
460.698	290.75
460.908	196.98
461.117	169.27
461.327	165.4
461.537	255.88
461.747	210.34
461.957	213.25
462.167	309.93
462.377	250.84
462.587	216.93
462.797	232.63
463.007	225.46
463.216	232.24
463.426	271.76
463.636	240.18
463.846	177.02
464.056	184.96
464.265	249.68
464.475	177.41
464.685	216.74
464.895	271.38
465.104	212.67
465.314	261.3
465.524	242.89
465.733	177.99
465.943	294.62
466.153	283.19
466.362	265.76
466.572	236.89
466.782	234.56
466.991	222.94
467.201	285.33
467.41	212.86
467.62	259.36
467.829	234.56
468.039	239.79
468.249	219.64
468.458	238.05
468.668	254.13
468.877	247.74
469.086	283.97
469.296	290.17
469.505	223.52
469.715	299.86
469.924	237.08
470.134	301.21
470.343	316.32
470.552	243.28
470.762	262.66
470.971	224.88
471.18	273.12
471.39	269.83
471.599	245.8
471.808	289.01
472.018	257.62
472.227	313.81
472.436	313.03
472.645	247.35
472.855	246.58
473.064	310.71
473.273	284.74
473.482	308.57
473.691	301.99
473.901	322.33
474.11	284.94
474.319	392.85
474.528	318.07
474.737	353.14
474.946	318.65
475.155	306.06
475.364	354.3
475.573	286.68
475.783	314.97
475.992	328.72
476.201	319.23
476.41	304.51
476.619	289.98
476.828	326.79
477.037	286.68
477.245	291.14
477.454	337.25
477.663	321.94
477.872	300.44
478.081	347.91
478.29	271.76
478.499	414.55
478.708	331.24
478.917	388.79
479.125	345.97
479.334	340.16
479.543	343.06
479.752	363.02
479.961	338.61
480.169	384.14
480.378	352.56
480.587	478.1
480.796	380.84
481.004	363.02
481.213	393.24
481.422	388.4
481.63	379.68
481.839	401.38
482.048	404.87
482.256	368.44
482.465	378.13
482.674	404.67
482.882	426.37
483.091	448.85
483.299	402.15
483.508	419.59
483.716	389.75
483.925	430.05
484.134	377.74
484.342	375.03
484.551	413
484.759	420.75
484.967	420.37
485.176	449.04
485.384	448.46
485.593	415.72
485.801	419.59
486.01	421.72
486.218	388.2
486.426	353.72
486.635	379.87
486.843	356.04
487.051	392.47
487.26	403.51
487.468	415.52
487.676	427.54
487.885	391.5
488.093	403.51
488.301	413.2
488.509	440.9
488.717	471.9
488.926	412.23
489.134	425.02
489.342	437.8
489.55	404.87
489.758	418.82
489.967	388.01
490.175	519.57
490.383	414.94
490.591	506.78
490.799	395.57
491.007	475
491.215	477.33
491.423	451.37
491.631	456.02
491.839	438.19
492.047	493.8
492.255	451.95
492.463	394.02
492.671	432.38
492.879	478.49
493.087	472.87
493.295	462.8
493.503	486.82
493.711	499.8
493.919	525.77
494.127	497.09
494.334	517.24
494.542	456.6
494.75	504.84
494.958	466.87
495.166	536.42
495.374	511.82
495.581	496.7
495.789	452.14
495.997	558.7
496.205	514.14
496.412	502.13
496.62	468.61
496.828	517.82
497.035	481.2
497.243	526.35
497.451	505.81
497.658	518.6
497.866	505.03
498.074	558.51
498.281	506.58
498.489	563.55
498.696	506.2
498.904	481.2
499.112	492.63
499.319	605.59
499.527	528.48
499.734	568
499.942	471.52
500.149	489.34
500.357	508.91
500.564	491.67
500.771	518.02
500.979	473.07
501.186	484.88
501.394	525.18
501.601	519.95
501.808	553.66
502.016	529.64
502.223	518.21
502.43	507.17
502.638	516.85
502.845	512.2
503.052	553.28
503.26	535.07
503.467	598.42
503.674	519.18
503.881	544.95
504.089	603.65
504.296	560.83
504.503	498.64
504.71	532.74
504.917	486.82
505.125	559.86
505.332	523.44
505.539	548.82
505.746	601.52
505.953	560.45
506.16	561.03
506.367	616.25
506.574	617.8
506.781	614.7
506.988	541.65
507.195	568.39
507.402	554.63
507.609	609.08
507.816	530.42
508.023	553.08
508.23	571.88
508.437	526.73
508.644	592.61
508.851	618.57
509.058	615.08
509.265	598.61
509.472	626.9
509.679	690.84
509.885	596.68
510.092	595.9
510.299	591.06
510.506	595.32
510.713	613.15
510.92	593.19
511.126	616.05
511.333	649.18
511.54	639.88
511.746	640.66
511.953	659.45
512.16	654.41
512.367	578.46
512.573	567.61
512.78	634.26
512.987	622.45
513.193	603.26
513.4	544.95
513.606	605.2
513.813	624.77
514.02	629.81
514.226	682.89
514.433	656.74
514.639	599.39
514.846	605.4
515.052	623.61
515.259	632.52
515.465	633.68
515.672	643.76
515.878	722.23
516.085	616.63
516.291	666.62
516.497	617.02
516.704	636.78
516.91	587.96
517.117	569.55
517.323	564.51
517.529	603.85
517.736	586.21
517.942	585.25
518.148	604.23
518.354	632.13
518.561	642.01
518.767	613.15
518.973	622.06
519.179	687.16
519.386	628.06
519.592	673.21
519.798	641.43
520.004	700.91
520.21	628.84
520.417	667.78
520.623	722.23
520.829	732.3
521.035	714.28
521.241	693.55
521.447	733.07
521.653	801.47
521.859	713.12
522.065	722.61
522.271	800.89
522.477	733.27
522.683	765.24
522.889	757.29
523.095	747.99
523.301	762.14
523.507	721.45
523.713	778.61
523.919	709.63
524.125	774.15
524.331	759.81
524.537	837.7
524.742	808.44
524.948	815.61
525.154	789.26
525.36	936.12
525.566	800.89
525.772	867.54
525.977	762.91
526.183	817.16
526.389	834.02
526.595	793.52
526.8	775.12
527.006	750.9
527.212	721.45
527.417	720.87
527.623	712.93
527.829	790.81
528.034	817.74
528.24	796.24
528.446	818.9
528.651	848.16
528.857	844.48
529.062	888.27
529.268	856.88
529.473	871.41
529.679	803.6
529.884	911.52
530.09	863.27
530.295	888.46
530.501	873.74
530.706	876.06
530.912	849.52
531.117	879.55
531.323	906.48
531.528	908.03
531.733	926.82
531.939	878
532.144	913.65
532.35	914.81
532.555	937.28
532.76	895.82
532.966	910.35
533.171	872.77
533.376	898.34
533.581	865.21
533.787	902.22
533.992	926.24
534.197	942.52
534.402	895.05
534.607	923.72
534.813	989.21
535.018	889.82
535.223	933.02
535.428	924.3
535.633	959.37
535.838	982.82
536.043	969.83
536.249	1034.93
536.454	975.07
536.659	976.23
536.864	943.87
537.069	956.66
537.274	990.76
537.479	996.76
537.684	996.76
537.889	946
538.094	1031.25
538.299	966.35
538.504	1009.36
538.708	978.94
538.913	994.83
539.118	1019.24
539.323	1015.75
539.528	954.92
539.733	988.43
539.938	1025.44
540.142	1006.06
540.347	996.76
540.552	969.64
540.757	983.01
540.962	970.61
541.166	948.72
541.371	942.32
541.576	987.08
541.781	888.27
541.985	1012.65
542.19	953.75
542.395	1022.34
542.599	1045.01
542.804	989.02
543.008	1067.29
543.213	991.53
543.418	966.93
543.622	1037.84
543.827	1000.06
544.031	1057.41
544.236	1025.83
544.44	1038.42
544.645	1097.32
544.849	994.83
545.054	1054.31
545.258	1127.35
545.463	1084.73
545.667	1048.88
545.872	1042.3
546.076	1063.8
546.281	1066.32
546.485	1023.5
546.689	1068.65
546.894	1072.13
547.098	1061.09
547.302	1046.17
547.507	1064
547.711	1054.31
547.915	1120.96
548.119	1040.36
548.324	1019.43
548.528	1088.21
548.732	1070.97
548.936	1079.11
549.141	1084.92
549.345	1069.42
549.549	1079.88
549.753	1059.93
549.957	1145.76
550.161	1152.34
550.366	1087.83
550.57	1043.85
550.774	1069.42
550.978	1072.33
551.182	1102.16
551.386	1050.43
551.59	1078.72
551.794	1084.92
551.998	1091.51
552.202	1061.48
552.406	1011.3
552.61	1093.83
552.814	1093.44
553.018	1153.7
553.222	1079.11
553.426	1092.67
553.63	1136.26
553.833	1078.72
554.037	1037.65
554.241	1125.41
554.445	1074.46
554.649	1083.76
554.853	1093.06
555.056	1105.46
555.26	1113.98
555.464	1083.76
555.668	1104.1
555.871	1120.96
556.075	1146.73
556.279	1071.16
556.483	1044.23
556.686	1099.84
556.89	1047.33
557.094	1112.82
557.297	1060.31
557.501	1109.91
557.704	1046.95
557.908	1098.09
558.112	1036.87
558.315	1127.16
558.519	1060.9
558.722	1046.56
558.926	1020.98
559.129	1005.48
559.333	987.08
559.536	1019.82
559.74	995.8
559.943	986.5
560.147	992.11
560.35	1038.03
560.553	1007.23
560.757	996.18
560.96	1082.98
561.164	978.36
561.367	1065.35
561.57	1021.76
561.774	1051.6
561.977	999.09
562.18	1005.1
562.384	1096.74
562.587	1024.28
562.79	974.1
562.993	990.76
563.197	1040.75
563.4	1045.4
563.603	1031.06
563.806	1062.25
564.009	984.17
564.212	1004.71
564.416	946.39
564.619	1029.31
564.822	969.06
565.025	1022.73
565.228	981.65
565.431	986.11
565.634	897.18
565.837	964.6
566.04	937.67
566.243	949.68
566.446	888.85
566.649	995.8
566.852	912.29
567.055	942.32
567.258	955.11
567.461	995.6
567.664	987.08
567.867	912.87
568.07	963.63
568.273	954.14
568.475	1000.83
568.678	913.65
568.881	924.5
569.084	894.85
569.287	864.82
569.489	845.06
569.692	929.53
569.895	920.62
570.098	879.94
570.3	841.19
570.503	826.85
570.706	865.4
570.909	822
571.111	822.2
571.314	800.69
571.516	839.25
571.719	844.67
571.922	849.71
572.124	811.16
572.327	861.72
572.529	792.56
572.732	806.7
572.935	833.82
573.137	883.81
573.34	841.77
573.542	847.97
573.745	850.1
573.947	855.91
574.15	845.25
574.352	816.39
574.554	894.66
574.757	797.01
574.959	785.77
575.162	797.98
575.364	815.42
575.566	870.25
575.769	777.25
575.971	829.37
576.173	729.97
576.376	801.47
576.578	818.9
576.78	861.72
576.982	729.78
577.185	799.92
577.387	751.29
577.589	727.46
577.791	806.51
577.993	795.27
578.196	770.66
578.398	780.93
578.6	801.66
578.802	748.57
579.004	737.72
579.206	760.39
579.408	776.86
579.61	766.21
579.812	782.09
580.014	754
580.216	761.17
580.418	741.6
580.62	717.58
580.822	703.43
581.024	771.05
581.226	785
581.428	755.55
581.63	815.61
581.832	731.91
582.034	822.97
582.236	786.94
582.438	801.86
582.64	809.22
582.841	800.11
583.043	837.12
583.245	782.67
583.447	784.81
583.649	789.46
583.85	797.4
584.052	817.35
584.254	766.79
584.456	821.42
584.657	748.96
584.859	764.66
585.061	780.74
585.262	740.05
585.464	725.33
585.666	790.42
585.867	748.77
586.069	796.62
586.27	753.61
586.472	785.77
586.674	743.92
586.875	775.51
587.077	748.77
587.278	752.06
587.48	761.36
587.681	825.49
587.883	778.61
588.084	721.45
588.285	708.66
588.487	724.16
588.688	758.07
588.89	661.39
589.091	644.14
589.292	691.42
589.494	690.45
589.695	686.19
589.896	612.37
590.098	612.56
590.299	683.28
590.5	659.45
590.702	667.2
590.903	668.56
591.104	713.31
591.305	696.46
591.507	725.91
591.708	699.75
591.909	676.31
592.11	777.64
592.311	722.42
592.512	677.66
592.714	644.53
592.915	653.83
593.116	672.82
593.317	699.36
593.518	680.57
593.719	674.56
593.92	700.53
594.121	752.26
594.322	721.06
594.523	727.26
594.724	653.06
594.925	687.16
595.126	687.74
595.327	726.1
595.528	696.65
595.729	710.41
595.929	667.2
596.13	699.36
596.331	709.44
596.532	705.37
596.733	733.27
596.934	724.36
597.135	734.04
597.335	717.96
597.536	674.37
597.737	672.04
597.938	670.3
598.138	703.43
598.339	703.63
598.54	711.76
598.74	699.36
598.941	704.01
599.142	733.85
599.342	720.87
599.543	653.64
599.744	696.84
599.944	687.93
600.145	707.69
600.345	713.7
600.546	785.77
600.746	743.34
600.947	784.03
601.147	723.58
601.348	722.81
601.548	684.25
601.749	674.37
601.949	660.23
602.15	678.44
602.35	709.44
602.551	736.17
602.751	690.64
602.951	662.55
603.152	613.53
603.352	722.61
603.552	674.95
603.753	721.64
603.953	692
604.153	693.36
604.354	685.41
604.554	677.86
604.754	684.83
604.954	671.27
605.155	730.75
605.355	679.41
605.555	732.88
605.755	755.94
605.955	671.27
606.155	745.86
606.356	707.69
606.556	748.96
606.756	711.57
606.956	678.44
607.156	744.89
607.356	674.18
607.556	703.43
607.756	696.46
607.956	777.25
608.156	708.66
608.356	691.23
608.556	711.57
608.756	692.97
608.956	635.62
609.156	695.1
609.356	663.13
609.556	649.96
609.755	695.88
609.955	633.49
610.155	670.69
610.355	684.25
610.555	683.67
610.755	694.52
610.954	628.26
611.154	681.73
611.354	683.28
611.554	650.73
611.753	636.4
611.953	607.72
612.153	686.19
612.352	666.81
612.552	637.17
612.752	597.26
612.951	632.91
613.151	670.88
613.351	629.42
613.55	649.18
613.75	653.64
613.949	652.48
614.149	654.8
614.348	666.23
614.548	628.65
614.747	619.15
614.947	638.72
615.146	579.82
615.346	651.51
615.545	626.13
615.745	628.06
615.944	676.11
616.144	630.78
616.343	673.79
616.542	619.35
616.742	661.97
616.941	625.74
617.14	599.97
617.34	651.89
617.539	614.5
617.738	581.95
617.938	650.93
618.137	627.1
618.336	623.22
618.535	653.83
618.734	641.82
618.934	637.95
619.133	647.44
619.332	643.56
619.531	574.2
619.73	601.91
619.929	637.95
620.128	652.28
620.328	694.91
620.527	581.18
620.726	612.56
620.925	624
621.124	619.35
621.323	625.35
621.522	601.71
621.721	584.66
621.92	573.04
622.119	627.87
622.318	591.06
622.517	619.35
622.715	591.45
622.914	555.02
623.113	599.39
623.312	556.38
623.511	598.42
623.71	580.21
623.909	560.45
624.107	636.01
624.306	568.97
624.505	568.58
624.704	557.15
624.902	584.86
625.101	591.83
625.3	583.11
625.499	562.38
625.697	567.23
625.896	543.4
626.095	595.32
626.293	506
626.492	572.85
626.69	568.97
626.889	517.43
627.088	595.9
627.286	537.78
627.485	520.15
627.683	515.11
627.882	591.25
628.08	522.47
628.279	549.21
628.477	597.45
628.676	518.02
628.874	555.99
629.073	528.67
629.271	510.27
629.469	555.99
629.668	532.74
629.866	545.53
630.065	538.36
630.263	575.95
630.461	507.17
630.66	533.13
630.858	564.51
631.056	577.69
631.254	586.8
631.453	535.26
631.651	573.62
631.849	538.55
632.047	574.78
632.245	516.85
632.444	588.15
632.642	577.3
632.84	572.26
633.038	527.12
633.236	539.52
633.434	558.51
633.632	533.9
633.83	506.39
634.028	560.45
634.227	561.03
634.425	607.33
634.623	549.98
634.821	541.65
635.019	590.67
635.216	525.96
635.414	583.11
635.612	562.38
635.81	536.42
636.008	631.75
636.206	528.67
636.404	590.48
636.602	535.26
636.8	559.09
636.997	588.35
637.195	593.19
637.393	528.67
637.591	602.3
637.789	553.47
637.986	538.75
638.184	568.97
638.382	588.15
638.58	563.74
638.777	593.38
638.975	545.92
639.173	551.34
639.37	574.98
639.568	558.7
639.765	560.25
639.963	559.86
640.161	596.68
640.358	558.12
640.556	532.35
640.753	518.21
640.951	505.23
641.148	537.58
641.346	513.17
641.543	532.55
641.741	560.06
641.938	522.67
642.136	550.37
642.333	527.7
642.531	569.94
642.728	574.4
642.925	559.67
643.123	530.8
643.32	562.19
643.517	525.77
643.715	512.01
643.912	558.31
644.109	553.66
644.306	533.52
644.504	502.9
644.701	544.56
644.898	545.92
645.095	481.78
645.293	537.2
645.49	558.51
645.687	545.92
645.884	548.43
646.081	455.24
646.278	505.81
646.475	526.93
646.672	488.37
646.87	530.8
647.067	517.63
647.264	517.05
647.461	455.63
647.658	469.77
647.855	517.05
648.052	483.33
648.249	427.73
648.446	495.15
648.642	444.59
648.839	442.45
649.036	438
649.233	435.87
649.43	458.54
649.627	440.9
649.824	460.47
650.021	434.12
650.217	437.42
650.414	447.3
650.611	458.54
650.808	479.46
651.004	491.47
651.201	512.4
651.398	536.62
651.595	479.65
651.791	475.39
651.988	508.52
652.185	457.95
652.381	489.53
652.578	427.54
652.775	443.42
652.971	447.49
653.168	485.47
653.364	493.41
653.561	412.04
653.757	463.96
653.954	462.8
654.15	469.77
654.347	519.57
654.543	447.49
654.74	419.2
654.936	428.12
655.133	474.42
655.329	466.48
655.525	455.24
655.722	480.62
655.918	445.36
656.115	463.96
656.311	391.5
656.507	375.81
656.704	354.3
656.9	391.3
657.096	387.62
657.292	374.45
657.489	444.97
657.685	401.77
657.881	403.9
658.077	403.12
658.273	440.52
658.47	499.42
658.666	404.67
658.862	442.26
659.058	453.11
659.254	484.69
659.45	426.37
659.646	479.65
659.842	438.97
660.038	455.24
660.234	419.4
660.43	447.69
660.626	484.3
660.822	517.82
661.018	489.34
661.214	433.35
661.41	417.07
661.606	473.07
661.802	444.2
661.998	458.92
662.194	443.62
662.39	444
662.586	466.87
662.781	486.43
662.977	466.48
663.173	475.58
663.369	450.79
663.564	469.38
663.76	459.89
663.956	435.29
664.152	483.53
664.347	405.06
664.543	437.22
664.739	444.59
664.934	382
665.13	402.15
665.326	455.05
665.521	447.69
665.717	379.29
665.912	430.05
666.108	381.62
666.304	426.57
666.499	431.6
666.695	369.8
666.89	434.51
667.086	453.11
667.281	445.94
667.477	494.57
667.672	433.54
667.867	436.84
668.063	434.51
668.258	389.75
668.454	422.5
668.649	484.11
668.844	409.9
669.04	454.27
669.235	438.39
669.43	408.55
669.626	400.6
669.821	413.2
670.016	393.24
670.211	413.97
670.407	388.79
670.602	418.82
670.797	430.05
670.992	449.62
671.187	406.61
671.382	433.35
671.578	411.65
671.773	431.6
671.968	406.22
672.163	406.61
672.358	448.27
672.553	383.94
672.748	394.79
672.943	489.73
673.138	408.35
673.333	430.44
673.528	385.1
673.723	423.27
673.918	389.95
674.113	356.43
674.308	477.91
674.503	451.56
674.698	421.92
674.892	435.48
675.087	424.82
675.282	411.07
675.477	389.17
675.672	410.1
675.867	397.5
676.061	372.12
676.256	359.14
676.451	391.3
676.646	411.84
676.84	370.57
677.035	378.71
677.23	339.38
677.424	418.04
677.619	414.55
677.814	402.54
678.008	443.81
678.203	334.92
678.397	365.34
678.592	402.93
678.787	452.53
678.981	380.84
679.176	431.8
679.37	389.75
679.565	362.63
679.759	395.76
679.954	423.47
680.148	447.88
680.342	432.38
680.537	443.04
680.731	388.98
680.926	431.41
681.12	413.59
681.314	391.89
681.509	381.62
681.703	365.92
681.897	401.96
682.092	402.15
682.286	398.86
682.48	414.36
682.674	436.25
682.869	422.11
683.063	405.84
683.257	457.57
683.451	374.84
683.645	394.02
683.839	397.12
684.034	390.92
684.228	407.19
684.422	347.13
684.616	363.99
684.81	427.54
685.004	386.65
685.198	391.5
685.392	425.02
685.586	371.35
685.78	399.64
685.974	400.22
686.168	410.68
686.362	458.34
686.556	391.69
686.75	304.89
686.944	359.92
687.138	389.75
687.331	302.57
687.525	323.49
687.719	261.88
687.913	315.16
688.107	330.47
688.301	324.85
688.494	340.93
688.688	301.41
688.882	272.15
689.076	273.31
689.269	320.78
689.463	380.45
689.657	327.56
689.85	322.14
690.044	321.94
690.238	318.46
690.431	327.17
690.625	322.14
690.818	359.92
691.012	343.26
691.205	381.62
691.399	308.77
691.593	366.12
691.786	385.1
691.98	399.83
692.173	449.24
692.366	380.07
692.56	383.75
692.753	438.77
692.947	380.84
693.14	426.57
693.333	431.02
693.527	375.81
693.72	387.24
693.914	409.52
694.107	394.99
694.3	441.68
694.493	390.72
694.687	413
694.88	377.55
695.073	477.72
695.266	430.64
695.46	428.7
695.653	447.88
695.846	475.78
696.039	375.81
696.232	431.22
696.425	449.24
696.618	451.75
696.812	441.87
697.005	527.7
697.198	574.59
697.391	533.71
697.584	540.49
697.777	561.41
697.97	555.8
698.163	550.37
698.356	519.37
698.549	617.8
698.742	575.95
698.935	564.71
699.127	566.26
699.32	545.33
699.513	563.16
699.706	562.19
699.899	589.7
700.092	564.32
700.285	604.62
700.477	566.45
700.67	608.11
700.863	594.74
701.056	680.96
701.248	646.08
701.441	653.64
701.634	637.75
701.826	744.31
702.019	628.06
702.212	682.31
702.404	657.32
702.597	629.42
702.79	642.4
702.982	682.7
703.175	702.08
703.367	752.84
703.56	736.95
703.752	786.94
703.945	754.58
704.137	764.27
704.33	758.65
704.522	790.23
704.715	815.22
704.907	818.32
705.1	828.59
705.292	866.18
705.484	833.44
705.677	862.5
705.869	868.89
706.061	926.63
706.254	915.58
706.446	880.32
706.638	940.19
706.831	980.88
707.023	923.72
707.215	992.89
707.407	996.76
707.599	931.47
707.792	1023.7
707.984	988.43
708.176	1044.43
708.368	1000.64
708.56	1043.07
708.752	1019.05
708.944	1010.33
709.136	1062.06
709.329	1050.43
709.521	1151.76
709.713	1137.23
709.905	1143.24
710.097	1165.13
710.289	1123.48
710.481	1143.82
710.672	1161.45
710.864	1163.19
711.056	1221.12
711.248	1177.53
711.44	1231.01
711.632	1182.18
711.824	1243.02
712.016	1289.32
712.207	1261.04
712.399	1293.97
712.591	1314.51
712.783	1315.48
712.975	1345.9
713.166	1285.64
713.358	1309.67
713.55	1316.25
713.741	1342.99
713.933	1366.63
714.125	1381.16
714.316	1369.15
714.508	1423.4
714.7	1417.97
714.891	1393.95
715.083	1455.17
715.274	1422.23
715.466	1448.2
715.657	1448.39
715.849	1419.13
716.04	1461.18
716.232	1390.46
716.423	1473.77
716.615	1366.82
716.806	1374.77
716.998	1328.46
717.189	1342.6
717.381	1239.72
717.572	1212.41
717.763	1250.19
717.955	1242.63
718.146	1242.63
718.337	1159.9
718.528	1160.68
718.72	1117.66
718.911	1182.57
719.102	1170.94
719.293	1188.38
719.485	1145.37
719.676	1153.51
719.867	1128.9
720.058	1152.34
720.249	1145.56
720.44	1162.23
720.632	1226.74
720.823	1228.1
721.014	1359.46
721.205	1386.78
721.396	1418.36
721.587	1498.57
721.778	1529.57
721.969	1557.86
722.16	1634.19
722.351	1602.22
722.542	1711.5
722.733	1720.22
722.924	1603.97
723.115	1692.7
723.305	1696.19
723.496	1676.82
723.687	1603.39
723.878	1557.66
724.069	1607.84
724.26	1595.25
724.45	1574.52
724.641	1573.16
724.832	1591.76
725.023	1616.56
725.213	1618.89
725.404	1574.71
725.595	1596.41
725.785	1611.14
725.976	1649.69
726.167	1627.02
726.357	1637.87
726.548	1709.75
726.739	1631.09
726.929	1722.74
727.12	1704.72
727.31	1770.98
727.501	1709.56
727.691	1703.36
727.882	1726.42
728.072	1783.38
728.263	1786.67
728.453	1849.83
728.644	1827.55
728.834	1854.29
729.024	1803.33
729.215	1779.5
729.405	1803.72
729.596	1899.43
729.786	1876.57
729.976	1900.6
730.167	1907.76
730.357	1876.18
730.547	1914.55
730.737	1937.41
730.928	1972.48
731.118	1995.92
731.308	1933.53
731.498	1960.27
731.688	2064.89
731.879	2062.76
732.069	2107.91
732.259	2140.65
732.449	2168.74
732.639	2226.67
732.829	2240.43
733.019	2240.23
733.209	2317.54
733.399	2326.06
733.589	2415.38
733.779	2401.24
733.969	2413.06
734.159	2471.76
734.349	2554.11
734.539	2544.22
734.729	2539.96
734.919	2581.23
735.109	2624.24
735.299	2549.65
735.488	2586.85
735.678	2593.63
735.868	2591.89
736.058	2589.75
736.248	2531.44
736.437	2544.81
736.627	2561.47
736.817	2687.02
737.007	2643.23
737.196	2685.08
737.386	2647.1
737.576	2641.87
737.765	2725.18
737.955	2671.71
738.144	2812.95
738.334	2771.49
738.524	2697.48
738.713	2723.44
738.903	2722.08
739.092	2795.71
739.282	2795.51
739.471	2799.2
739.661	2773.43
739.85	2826.32
740.04	2821.28
740.229	2842.4
740.419	2885.41
740.608	2872.24
740.797	2879.41
740.987	2940.44
741.176	2901.11
741.365	2875.14
741.555	2850.34
741.744	2938.11
741.933	2875.73
742.123	2918.35
742.312	2978.41
742.501	3012.9
742.69	3026.85
742.88	2896.46
743.069	3041.57
743.258	2950.51
743.447	3065.79
743.636	3015.8
743.825	2984.61
744.014	3042.35
744.204	3046.03
744.393	2956.52
744.582	3069.86
744.771	3088.46
744.96	3005.15
745.149	3096.02
745.338	3029.17
745.527	3089.04
745.716	3068.7
745.905	3033.82
746.094	3079.16
746.283	3086.14
746.471	3071.22
746.66	3148.72
746.849	3119.65
747.038	3142.32
747.227	3077.8
747.416	3104.54
747.604	3078.58
747.793	3102.41
747.982	3132.44
748.171	3117.52
748.359	3140.19
748.548	3095.82
748.737	3088.27
748.926	3123.72
749.114	3072.57
749.303	3119.85
749.491	3115.78
749.68	3033.44
749.869	3145.42
750.057	3084
750.246	3093.5
750.434	3092.14
750.623	3028.79
750.811	3057.46
751	3121.01
751.188	3075.67
751.377	3114.62
751.565	3080.52
751.754	3036.15
751.942	3038.86
752.131	3113.45
752.319	3007.09
752.507	3046.61
752.696	3075.67
752.884	3136.51
753.072	3043.51
753.261	3072.38
753.449	3060.56
753.637	3054.36
753.825	3083.23
754.014	3095.63
754.202	3048.74
754.39	3087.88
754.578	3100.86
754.766	3034.6
754.955	3020.45
755.143	3113.26
755.331	3020.84
755.519	3098.15
755.707	3039.25
755.895	3030.92
756.083	3048.16
756.271	2982.48
756.459	3032.47
756.647	3048.74
756.835	2985
757.023	2951.09
757.211	2997.21
757.399	2963.3
757.587	3013.09
757.775	2880.57
757.963	2920.87
758.151	2919.51
758.339	2930.75
758.526	2865.84
758.714	2916.02
758.902	2793.58
759.09	2752.7
759.278	2572.51
759.465	2359.58
759.653	2018.59
759.841	1859.91
760.028	1587.5
760.216	1384.45
760.404	1309.86
760.591	1035.71
760.779	892.92
760.967	747.22
761.154	644.34
761.342	670.69
761.529	669.53
761.717	711.38
761.905	697.43
762.092	749.93
762.28	700.72
762.467	705.37
762.655	633.88
762.842	660.61
763.029	684.25
763.217	707.11
763.404	675.53
763.592	657.13
763.779	685.61
763.966	672.63
764.154	731.72
764.341	777.06
764.528	802.63
764.716	867.15
764.903	925.47
765.09	981.46
765.277	994.63
765.465	1168.81
765.652	1211.82
765.839	1276.73
766.026	1399.18
766.213	1388.13
766.4	1517.56
766.588	1714.02
766.775	1666.74
766.962	1785.7
767.149	1836.08
767.336	1990.11
767.523	1947.68
767.71	2098.61
767.897	2185.6
768.084	2236.75
768.271	2285.18
768.458	2340.79
768.645	2417.32
768.832	2346.41
769.019	2410.93
769.206	2439.79
769.392	2491.52
769.579	2601.19
769.766	2562.63
769.953	2556.24
770.14	2592.85
770.327	2584.91
770.513	2614.55
770.7	2666.48
770.887	2622.89
771.073	2659.31
771.26	2597.7
771.447	2633.15
771.634	2608.94
771.82	2712.2
772.007	2620.37
772.193	2684.5
772.38	2659.12
772.567	2668.8
772.753	2629.47
772.94	2699.22
773.126	2670.93
773.313	2682.95
773.499	2706.39
773.686	2692.63
773.872	2645.36
774.059	2680.23
774.245	2606.42
774.432	2650.59
774.618	2549.46
774.804	2607.77
774.991	2586.85
775.177	2630.44
775.363	2612.62
775.55	2649.04
775.736	2567.86
775.922	2595.95
776.109	2624.82
776.295	2639.55
776.481	2613.97
776.667	2648.46
776.853	2592.66
777.04	2551.78
777.226	2622.69
777.412	2661.63
777.598	2523.49
777.784	2569.41
777.97	2564.37
778.156	2590.92
778.342	2588.2
778.528	2537.83
778.715	2528.14
778.901	2513.81
779.087	2564.95
779.272	2497.34
779.458	2511.48
779.644	2517.68
779.83	2485.52
780.016	2582.59
780.202	2518.46
780.388	2495.01
780.574	2454.91
780.76	2480.67
780.946	2476.8
781.131	2499.47
781.317	2451.81
781.503	2425.26
781.689	2478.74
781.874	2544.42
782.06	2467.11
782.246	2437.28
782.432	2456.46
782.617	2444.83
782.803	2488.04
782.989	2359.78
783.174	2414.03
783.36	2345.25
783.545	2428.75
783.731	2422.94
783.916	2325.1
784.102	2405.31
784.288	2375.66
784.473	2382.06
784.659	2376.25
784.844	2382.45
785.029	2334.2
785.215	2347.76
785.4	2305.72
785.586	2388.84
785.771	2332.46
785.956	2342.73
786.142	2327.23
786.327	2302.43
786.512	2294.68
786.698	2268.91
786.883	2247.02
787.068	2276.66
787.254	2272.4
787.439	2245.27
787.624	2254.77
787.809	2198.58
787.994	2234.23
788.18	2291
788.365	2188.89
788.55	2203.23
788.735	2228.8
788.92	2191.8
789.105	2182.11
789.29	2204.59
789.475	2157.5
789.66	2147.43
789.845	2150.72
790.03	2142.2
790.215	2205.94
790.4	2172.81
790.585	2221.05
790.77	2134.06
790.955	2106.74
791.14	2121.66
791.325	2202.07
791.51	2076.71
791.695	2118.95
791.879	2119.34
792.064	2060.44
792.249	2187.54
792.434	2131.93
792.618	2124.96
792.803	2131.74
792.988	2123.21
793.173	2128.25
793.357	2137.16
793.542	2109.26
793.727	2123.99
793.911	2158.28
794.096	2094.92
794.281	2181.92
794.465	2210.2
794.65	2118.56
794.834	2157.7
795.019	2196.84
795.203	2227.45
795.388	2175.91
795.572	2235.2
795.757	2169.52
795.941	2169.32
796.126	2124.96
796.31	2083.88
796.494	2190.64
796.679	2087.95
796.863	2101.71
797.048	2201.49
797.232	2172.04
797.416	2165.25
797.601	2143.55
797.785	2222.99
797.969	2203.42
798.153	2158.28
798.338	2187.15
798.522	2193.54
798.706	2176.49
798.89	2220.86
799.074	2298.75
799.258	2243.53
799.443	2185.4
799.627	2174.17
799.811	2230.16
799.995	2154.4
800.179	2151.89
800.363	2155.57
800.547	2176.1
800.731	2220.47
800.915	2094.34
801.099	2102.87
801.283	2158.28
801.467	2155.57
801.651	2155.76
801.835	2228.61
802.019	2176.3
802.202	2171.07
802.386	2134.45
802.57	2119.72
802.754	2130.38
802.938	2085.82
803.121	2116.24
803.305	2186.95
803.489	2127.86
803.673	2186.37
803.856	2177.85
804.04	2156.73
804.224	2140.65
804.407	2143.36
804.591	2156.34
804.775	2142.78
804.958	2131.93
805.142	2235.39
805.326	2154.21
805.509	2152.47
805.693	2181.72
805.876	2168.16
806.06	2181.72
806.243	2206.14
806.427	2227.25
806.61	2214.47
806.794	2203.23
806.977	2229
807.16	2176.88
807.344	2206.33
807.527	2169.32
807.71	2143.17
807.894	2163.9
808.077	2199.94
808.26	2131.54
808.444	2138.9
808.627	2226.09
808.81	2125.54
808.993	2087.95
809.177	2052.11
809.36	2092.21
809.543	2102.87
809.726	2043
809.909	2037.77
810.092	2011.61
810.276	2026.92
810.459	2018.98
810.642	2000.38
810.825	1944.58
811.008	2003.48
811.191	1936.63
811.374	1925.4
811.557	1943.61
811.74	2007.54
811.923	1852.74
812.106	1899.82
812.289	1859.13
812.472	1873.28
812.654	1875.21
812.837	1814.38
813.02	1784.93
813.203	1752.19
813.386	1697.16
813.569	1696.19
813.751	1615.98
813.934	1683.02
814.117	1625.67
814.3	1584.21
814.482	1585.76
814.665	1515.43
814.848	1514.84
815.03	1441.03
815.213	1431.92
815.396	1459.05
815.578	1415.65
815.761	1406.93
815.943	1486.56
816.126	1345.7
816.309	1323.62
816.491	1259.29
816.674	1281.57
816.856	1322.65
817.039	1287.58
817.221	1393.56
817.403	1306.37
817.586	1323.23
817.768	1329.24
817.951	1251.35
818.133	1288.74
818.315	1273.24
818.498	1343.77
818.68	1378.45
818.862	1357.33
819.045	1378.06
819.227	1368.76
819.409	1330.59
819.591	1367.21
819.774	1356.75
819.956	1289.13
820.138	1389.68
820.32	1342.99
820.502	1413.71
820.684	1497.8
820.866	1455.17
821.048	1531.31
821.231	1578.98
821.413	1494.11
821.595	1508.06
821.777	1510
821.959	1501.09
822.141	1544.1
822.323	1429.6
822.505	1391.62
822.686	1357.13
822.868	1267.04
823.05	1205.62
823.232	1217.06
823.414	1085.69
823.596	1200.78
823.778	1161.26
823.96	1189.54
824.141	1193.42
824.323	1219.96
824.505	1293.59
824.687	1357.33
824.868	1390.07
825.05	1460.6
825.232	1468.73
825.413	1509.42
825.595	1484.43
825.777	1416.23
825.958	1466.99
826.14	1439.09
826.321	1493.92
826.503	1462.53
826.685	1462.15
826.866	1503.61
827.048	1502.64
827.229	1474.16
827.411	1415.45
827.592	1362.56
827.773	1368.18
827.955	1339.12
828.136	1336.79
828.318	1297.07
828.499	1326.52
828.68	1281.77
828.862	1311.99
829.043	1331.37
829.224	1336.6
829.406	1255.8
829.587	1282.35
829.768	1311.02
829.949	1304.82
830.131	1306.18
830.312	1376.12
830.493	1331.17
830.674	1350.55
830.855	1345.32
831.036	1309.09
831.218	1391.82
831.399	1399.37
831.58	1386.2
831.761	1336.21
831.942	1364.3
832.123	1286.61
832.304	1281.96
832.485	1285.45
832.666	1351.13
832.847	1336.21
833.028	1312.19
833.209	1314.9
833.389	1324
833.57	1261.42
833.751	1282.54
833.932	1385.81
834.113	1367.21
834.294	1301.92
834.475	1341.83
834.655	1376.51
834.836	1364.11
835.017	1365.47
835.198	1292.04
835.378	1348.22
835.559	1386
835.74	1369.92
835.92	1335.82
836.101	1324.39
836.281	1380.97
836.462	1341.63
836.643	1400.92
836.823	1401.12
837.004	1404.99
837.184	1455.17
837.365	1409.45
837.545	1433.28
837.726	1393.17
837.906	1423.01
838.087	1387.17
838.267	1400.73
838.448	1341.63
838.628	1354.62
838.808	1388.52
838.989	1427.08
839.169	1337.57
839.349	1390.65
839.53	1394.53
839.71	1462.34
839.89	1354.23
840.07	1448.78
840.251	1361.78
840.431	1432.89
840.611	1363.72
840.791	1348.8
840.971	1412.16
841.151	1347.25
841.332	1340.47
841.512	1446.45
841.692	1345.32
841.872	1398.79
842.052	1394.14
842.232	1389.3
842.412	1320.13
842.592	1349.19
842.772	1404.02
842.952	1411.77
843.132	1370.5
843.312	1386.58
843.492	1347.64
843.672	1403.83
843.851	1320.52
844.031	1342.22
844.211	1361.4
844.391	1348.03
844.571	1388.13
844.751	1375.73
844.93	1381.16
845.11	1336.21
845.29	1326.91
845.47	1365.66
845.649	1348.8
845.829	1366.43
846.009	1310.44
846.188	1375.35
846.368	1356.55
846.547	1351.9
846.727	1372.83
846.907	1306.76
847.086	1309.67
847.266	1370.89
847.445	1350.16
847.625	1328.27
847.804	1321.87
847.984	1304.24
848.163	1302.11
848.343	1322.45
848.522	1312.57
848.701	1336.02
848.881	1304.05
849.06	1308.12
849.239	1329.43
849.419	1324
849.598	1247.47
849.777	1257.35
849.957	1276.54
850.136	1185.86
850.315	1166.87
850.494	1198.07
850.674	1180.82
850.853	1246.7
851.032	1206.21
851.211	1265.1
851.39	1230.62
851.569	1209.31
851.748	1200.59
851.927	1223.06
852.107	1249.41
852.286	1188.57
852.465	1181.21
852.644	1250.96
852.823	1243.6
853.002	1202.91
853.181	1244.96
853.359	1218.02
853.538	1156.8
853.717	1217.06
853.896	1107.98
854.075	1059.35
854.254	1047.91
854.433	1026.6
854.611	1060.12
854.79	1027.18
854.969	1097.32
855.148	1075.81
855.327	1039.39
855.505	1122.89
855.684	1076.59
855.863	1072.33
856.041	1050.24
856.22	1132.58
856.399	1090.73
856.577	1189.16
856.756	1144.98
856.934	1251.93
857.113	1258.32
857.291	1209.31
857.47	1133.36
857.648	1184.89
857.827	1128.71
858.005	1195.94
858.184	1168.42
858.362	1220.93
858.541	1184.12
858.719	1139.75
858.898	1182.76
859.076	1147.89
859.254	1198.65
859.433	1136.46
859.611	1141.11
859.789	1083.37
859.967	1171.52
860.146	1181.21
860.324	1100.23
860.502	1124.64
860.68	1105.84
860.859	1088.79
861.037	1126.19
861.215	1128.32
861.393	1089.96
861.571	1127.35
861.749	1076.01
861.927	1138.59
862.105	1150.21
862.283	1100.03
862.461	1075.04
862.639	1081.04
862.817	1055.28
862.995	1114.56
863.173	1047.33
863.351	1053.73
863.529	1080.46
863.707	1131.61
863.885	1087.83
864.063	1030.09
864.241	1054.89
864.418	1092.67
864.596	1075.04
864.774	1020.01
864.952	1038.81
865.129	1081.82
865.307	1057.41
865.485	985.72
865.663	1069.42
865.84	973.52
866.018	1037.65
866.196	892.72
866.373	936.51
866.551	920.82
866.728	866.95
866.906	917.52
867.084	932.63
867.261	946.97
867.439	946.97
867.616	994.44
867.794	984.56
867.971	977.97
868.149	974.87
868.326	1024.28
868.503	1016.33
868.681	995.02
868.858	971
869.035	968.87
869.213	1023.11
869.39	987.27
869.567	1064.38
869.745	952.59
869.922	1005.87
870.099	1016.72
870.276	1014.2
870.454	983.2
870.631	1016.53
870.808	1001.61
870.985	1015.36
871.162	1028.93
871.339	994.25
871.517	949.49
871.694	915.97
871.871	935.35
872.048	947.55
872.225	935.54
872.402	989.21
872.579	940
872.756	1001.03
872.933	938.64
873.11	978.55
873.287	983.4
873.463	910.35
873.64	953.95
873.817	965.18
873.994	940.38
874.171	893.11
874.348	946
874.524	901.05
874.701	911.9
874.878	876.84
875.055	947.75
875.231	896.21
875.408	934.96
875.585	876.25
875.762	911.71
875.938	889.24
876.115	878.58
876.291	874.9
876.468	880.9
876.645	882.26
876.821	886.72
876.998	896.02
877.174	912.29
877.351	898.92
877.527	866.95
877.704	889.62
877.88	893.3
878.057	877.22
878.233	920.43
878.409	898.73
878.586	902.6
878.762	882.07
878.938	880.13
879.115	809.22
879.291	888.85
879.467	827.43
879.644	835.76
879.82	887.69
879.996	825.3
880.172	795.85
880.349	850.29
880.525	849.13
880.701	828.2
880.877	819.1
881.053	811.93
881.229	837.89
881.405	865.21
881.581	803.79
881.757	815.03
881.933	834.02
882.109	854.94
882.285	810.19
882.461	796.04
882.637	837.7
882.813	809.8
882.989	819.1
883.165	890.59
883.341	798.17
883.517	856.88
883.693	815.22
883.869	863.08
884.044	822.97
884.22	870.83
884.396	873.93
884.572	837.12
884.747	847.19
884.923	868.7
885.099	871.41
885.275	869.47
885.45	815.22
885.626	810.57
885.801	812.32
885.977	817.16
886.153	782.48
886.328	830.34
886.504	804.96
886.679	842.35
886.855	812.32
887.03	826.27
887.206	860.56
887.381	835.57
887.557	832.85
887.732	844.48
887.908	852.62
888.083	835.95
888.258	804.37
888.434	808.83
888.609	805.92
888.784	846.42
888.96	805.73
889.135	804.96
889.31	807.09
889.485	820.26
889.661	797.21
889.836	865.6
890.011	812.32
890.186	797.21
890.361	813.09
890.537	815.42
890.712	803.02
890.887	828.01
891.062	795.07
891.237	857.85
891.412	770.27
891.587	791.78
891.762	860.56
891.937	876.06
892.112	767.37
892.287	786.16
892.462	749.16
892.637	750.71
892.812	734.62
892.987	741.02
893.161	731.33
893.336	734.82
893.511	739.27
893.686	737.72
893.861	743.34
894.035	718.74
894.21	721.26
894.385	671.85
894.56	736.17
894.734	677.47
894.909	648.79
895.084	674.76
895.258	675.73
895.433	675.14
895.608	659.45
895.782	614.89
895.957	647.05
896.131	626.13
896.306	567.03
896.48	546.3
896.655	566.45
896.829	498.64
897.004	538.55
897.178	563.55
897.353	541.07
897.527	573.62
897.701	543.59
897.876	519.18
898.05	580.98
898.224	543.4
898.399	558.7
898.573	518.4
898.747	415.91
898.921	491.08
899.096	422.5
899.27	436.25
899.444	430.25
899.618	486.24
899.792	467.06
899.967	450.2
900.141	476.36
900.315	440.52
900.489	459.89
900.663	510.07
900.837	472.29
901.011	432.19
901.185	517.82
901.359	484.5
901.533	479.46
901.707	480.62
901.881	446.33
902.055	419.01
902.229	459.89
902.403	492.63
902.576	461.83
902.75	465.12
902.924	582.53
903.098	522.86
903.272	573.43
903.446	588.73
903.619	576.72
903.793	592.61
903.967	555.8
904.14	629.42
904.314	626.13
904.488	616.44
904.661	613.34
904.835	590.28
905.009	620.7
905.182	666.23
905.356	612.95
905.529	612.18
905.703	553.08
905.876	562.19
906.05	542.62
906.223	534.48
906.397	490.31
906.57	494.96
906.744	459.5
906.917	460.86
907.09	454.66
907.264	465.7
907.437	432.77
907.61	420.56
907.784	448.27
907.957	440.52
908.13	442.26
908.304	459.31
908.477	422.5
908.65	427.92
908.823	354.49
908.996	456.6
909.17	433.74
909.343	400.99
909.516	438.97
909.689	404.09
909.862	398.47
910.035	400.22
910.208	393.82
910.381	391.3
910.554	449.62
910.727	416.49
910.9	383.55
911.073	385.1
911.246	468.61
911.419	470.74
911.592	447.88
911.765	396.34
911.938	388.98
912.11	431.02
912.283	403.9
912.456	450.2
912.629	408.16
912.802	394.79
912.974	358.76
913.147	327.76
913.32	283
913.493	327.95
913.665	331.05
913.838	351.39
914.01	314.39
914.183	386.46
914.356	347.32
914.528	391.5
914.701	431.6
914.873	403.12
915.046	351.59
915.218	319.62
915.391	280.48
915.563	295.01
915.736	339.77
915.908	353.14
916.081	353.91
916.253	353.33
916.425	345.97
916.598	370.96
916.77	369.99
916.942	335.31
917.115	258.59
917.287	346.16
917.459	308.57
917.632	280.29
917.804	245.61
917.976	331.24
918.148	343.84
918.32	355.27
918.493	362.44
918.665	392.08
918.837	360.31
919.009	421.14
919.181	411.65
919.353	374.26
919.525	359.14
919.697	376.77
919.869	369.22
920.041	404.09
920.213	489.15
920.385	416.49
920.557	362.63
920.729	401.19
920.901	373.09
921.073	373.29
921.244	359.14
921.416	398.28
921.588	378.71
921.76	350.81
921.932	416.1
922.103	386.65
922.275	377.16
922.447	379.87
922.619	316.52
922.79	350.04
922.962	373.29
923.134	385.88
923.305	349.84
923.477	297.53
923.648	321.17
923.82	343.26
923.991	275.83
924.163	267.31
924.335	321.94
924.506	282.42
924.677	364.96
924.849	310.12
925.02	319.81
925.192	347.52
925.363	305.67
925.535	313.22
925.706	292.11
925.877	370.19
926.049	287.84
926.22	319.42
926.391	332.41
926.562	338.61
926.734	307.99
926.905	329.69
927.076	284.94
927.247	276.41
927.419	259.94
927.59	254.52
927.761	285.52
927.932	224.29
928.103	248.32
928.274	201.82
928.445	203.37
928.616	228.36
928.787	210.93
928.958	250.64
929.129	225.26
929.3	204.53
929.471	179.73
929.642	147.38
929.813	116.38
929.984	214.41
930.155	123.35
930.326	192.13
930.496	127.61
930.667	100.3
930.838	129.55
931.009	107.85
931.18	103.01
931.35	134.59
931.521	106.3
931.692	66.97
931.863	46.05
932.033	116.57
932.204	87.9
932.374	92.74
932.545	64.84
932.716	115.02
932.886	86.73
933.057	25.7
933.227	74.72
933.398	144.08
933.568	39.65
933.739	9.43
933.909	30.93
934.08	93.13
934.25	-23.7
934.421	5.55
934.591	68.72
934.761	8.85
934.932	-22.93
935.102	14.27
935.272	18.54
935.443	39.46
935.613	21.44
935.783	55.54
935.953	-11.3
936.123	146.6
936.294	-1.03
936.464	13.11
936.634	-0.26
936.804	-0.06
936.974	1.49
937.144	44.88
937.314	38.3
937.484	44.69
937.655	21.25
937.825	58.83
937.995	13.69
938.165	62.9
938.334	22.8
938.504	61.55
938.674	19.12
938.844	50.5
939.014	71.62
939.184	66.58
939.354	111.34
939.524	111.34
939.694	56.12
939.863	74.33
940.033	120.06
940.203	118.12
940.373	80.53
940.542	98.94
940.712	53.8
940.882	71.82
941.051	125.48
941.221	81.89
941.391	109.21
941.56	71.23
941.73	32.1
941.899	156.29
942.069	64.26
942.238	84.99
942.408	63.87
942.577	89.64
942.747	82.08
942.916	12.53
943.086	48.37
943.255	79.18
943.425	49.92
943.594	78.02
943.763	3.62
943.933	39.85
944.102	-7.81
944.271	64.84
944.441	61.16
944.61	34.23
944.779	52.05
944.948	116.38
945.117	36.55
945.287	46.82
945.456	-12.27
945.625	39.27
945.794	53.8
945.963	29.58
946.132	55.15
946.301	50.5
946.47	60.97
946.639	0.13
946.808	31.52
946.977	77.63
947.146	98.94
947.315	56.7
947.484	90.22
947.653	42.56
947.822	40.04
947.991	29.38
948.16	110.37
948.329	81.89
948.498	35.2
948.666	53.22
948.835	82.86
949.004	2.07
949.173	15.44
949.341	61.16
949.51	60.38
949.679	102.23
949.847	61.16
950.016	92.35
950.185	121.22
950.353	32.87
950.522	21.64
950.69	90.61
950.859	29.38
951.028	84.02
951.196	60.19
951.365	44.69
951.533	49.92
951.701	74.72
951.87	71.23
952.038	31.71
952.207	35.58
952.375	95.45
952.543	44.3
952.712	39.65
952.88	21.44
953.048	85.96
953.217	47.4
953.385	36.75
953.553	84.02
953.721	21.83
953.89	46.82
954.058	38.3
954.226	15.24
954.394	48.76
954.562	-20.21
954.73	53.41
954.898	8.27
955.067	84.22
955.235	12.34
955.403	102.43
955.571	110.95
955.739	79.37
955.907	-0.84
956.075	35
956.243	49.34
956.41	66.78
956.578	4.59
956.746	-2.58
956.914	32.1
957.082	66.39
957.25	75.11
957.418	33.65
957.585	53.41
957.753	70.07
957.921	33.65
958.089	44.5
958.256	68.91
958.424	51.28
958.592	84.99
958.759	46.24
958.927	64.65
959.095	38.68
959.262	37.52
959.43	69.68
959.597	25.7
959.765	58.83
959.932	4.78
960.1	75.3
960.267	53.6
960.435	68.13
960.602	84.99
960.77	35.39
960.937	37.33
961.104	54.57
961.272	13.69
961.439	47.6
961.606	97.58
961.774	88.28
961.941	37.13
962.108	98.55
962.275	57.09
962.443	71.82
962.61	81.12
962.777	111.73
962.944	69.88
963.111	89.83
963.278	73.75
963.446	68.13
963.613	66.39
963.78	75.88
963.947	116.38
964.114	72.2
964.281	147.18
964.448	72.4
964.615	67.17
964.782	124.51
964.949	107.66
965.116	86.93
965.282	95.65
965.449	59.8
965.616	28.22
965.783	86.54
965.95	60.97
966.117	16.4
966.283	20.86
966.45	65.03
966.617	89.45
966.784	102.82
966.95	99.91
967.117	113.67
967.284	47.4
967.45	44.69
967.617	107.08
967.784	102.23
967.95	130.13
968.117	90.8
968.283	88.28
968.45	141.18
968.616	73.17
968.783	126.65
968.949	86.54
969.116	134.59
969.282	82.28
969.449	88.87
969.615	83.63
969.781	66
969.948	58.25
970.114	67.94
970.28	144.28
970.447	77.24
970.613	128.2
970.779	76.47
970.945	105.72
971.112	90.03
971.278	75.11
971.444	68.72
971.61	114.83
971.776	82.08
971.942	109.6
972.108	103.2
972.275	86.93
972.441	108.05
972.607	137.5
972.773	53.22
972.939	97
973.105	68.91
973.271	48.95
973.437	77.05
973.602	54.57
973.768	73.75
973.934	78.6
974.1	60
974.266	15.63
974.432	86.35
974.598	82.67
974.763	93.52
974.929	60.19
975.095	130.71
975.261	49.53
975.426	45.66
975.592	69.88
975.758	128.58
975.923	31.9
976.089	46.05
976.255	93.9
976.42	90.22
976.586	109.4
976.751	56.9
976.917	167.33
977.082	107.47
977.248	43.33
977.413	25.9
977.579	73.17
977.744	64.26
977.91	26.67
978.075	52.25
978.24	106.3
978.406	82.86
978.571	28.8
978.736	36.75
978.902	76.85
979.067	39.65
979.232	18.92
979.397	79.76
979.563	69.88
979.728	32.68
979.893	69.88
980.058	56.7
980.223	80.73
980.388	69.1
980.554	71.23
980.719	43.72
980.884	105.33
981.049	88.28
981.214	94.68
981.379	89.83
981.544	64.26
981.709	48.76
981.874	69.1
982.039	77.43
982.204	114.05
982.368	64.45
982.533	53.22
982.698	87.51
982.863	87.12
983.028	60.58
983.193	81.7
983.357	79.95
983.522	73.75
983.687	35.97
983.852	71.23
984.016	66.58
984.181	55.15
984.346	67.55
984.51	90.8
984.675	42.95
984.839	74.14
985.004	70.85
985.168	114.25
985.333	86.54
985.498	56.32
985.662	81.31
985.827	84.6
985.991	79.76
986.155	58.64
986.32	93.52
986.484	134.98
986.649	87.51
986.813	23.96
986.977	107.47
987.142	99.13
987.306	28.61
987.47	68.33
987.634	31.13
987.799	88.48
987.963	79.95
988.127	97.39
988.291	148.15
988.455	75.11
988.62	65.62
988.784	84.41
988.948	103.78
989.112	65.23
989.276	65.81
989.44	94.87
989.604	48.18
989.768	61.35
989.932	139.82
990.096	42.37
990.26	48.95
990.424	25.32
990.588	64.65
990.752	130.52
990.915	83.25
991.079	44.5
991.243	60.19
991.407	116.38
991.571	70.46
991.734	87.51
991.898	84.02
992.062	142.34
992.226	57.67
992.389	22.22
992.553	22.8
992.717	30.55
992.88	62.71
993.044	88.67
993.207	61.16
993.371	83.83
993.535	72.4
993.698	66.2
993.862	89.45
994.025	92.35
994.189	78.79
994.352	72.2
994.515	60.97
994.679	95.65
994.842	28.03
995.006	86.15
995.169	42.95
995.332	19.5
995.496	105.14
995.659	23.38
995.822	39.07
995.985	47.79
996.149	111.34
996.312	66.97
996.475	95.45
996.638	58.06
996.801	91.77
996.964	107.08
997.128	48.37
997.291	49.53
997.454	71.04
997.617	4
997.78	88.48
997.943	38.1
998.106	56.12
998.269	11.37
998.432	36.36
998.595	37.13
998.758	3.81
998.92	30.55
999.083	-7.81
999.246	63.68
999.409	19.5
999.572	8.07
999.735	24.35
999.897	57.67
1000.06	42.56
1000.223	38.49
1000.386	104.17
1000.548	87.12
1000.711	61.16
1000.874	50.31
1001.036	14.27
1001.199	67.55
1001.361	14.85
1001.524	38.3
1001.687	69.88
1001.849	33.65
1002.012	63.68
1002.174	43.33
1002.337	78.4
1002.499	50.31
1002.661	93.71
1002.824	15.63
1002.986	24.15
1003.149	49.15
1003.311	21.83
1003.473	107.85
1003.636	17.76
1003.798	50.89
1003.96	66.97
1004.123	45.27
1004.285	38.1
1004.447	34.81
1004.609	36.36
1004.771	110.18
1004.933	6.33
1005.096	37.13
1005.258	1.1
1005.42	12.92
1005.582	71.82
1005.744	68.33
1005.906	-32.03
1006.068	53.99
1006.23	8.07
1006.392	-15.56
1006.554	2.84
1006.716	57.28
1006.878	32.48
1007.04	-11.69
1007.202	32.1
1007.363	39.85
1007.525	50.5
1007.687	56.12
1007.849	111.92
1008.011	-16.73
1008.172	23.57
1008.334	10.79
1008.496	69.1
1008.658	-26.03
1008.819	24.15
1008.981	11.56
1009.143	12.92
1009.304	17.57
1009.466	54.57
1009.627	93.32
1009.789	114.05
1009.95	42.37
1010.112	13.11
1010.273	28.61
1010.435	34.03
1010.596	29.97
1010.758	20.09
1010.919	-5.88
1011.081	16.4
1011.242	11.17
1011.403	33.65
1011.565	32.68
1011.726	36.36
1011.887	-4.71
1012.049	28.8
1012.21	56.9
1012.371	96.62
1012.532	-33.97
1012.693	43.53
1012.855	13.89
1013.016	28.61
1013.177	51.67
1013.338	34.42
1013.499	95.84
1013.66	18.54
1013.821	41.2
1013.982	28.42
1014.143	48.18
1014.304	11.17
1014.465	50.7
1014.626	58.45
1014.787	27.06
1014.948	87.9
1015.109	-32.23
1015.27	58.06
1015.431	11.17
1015.592	12.72
1015.752	70.85
1015.913	13.3
1016.074	58.06
1016.235	24.54
1016.395	20.67
1016.556	12.53
1016.717	24.35
1016.877	73.56
1017.038	2.45
1017.199	17.18
1017.359	25.7
1017.52	27.06
1017.681	3.23
1017.841	1.29
1018.002	10.2
1018.162	14.47
1018.323	62.32
1018.483	3.04
1018.644	34.81
1018.804	-13.24
1018.964	-0.84
1019.125	8.07
1019.285	11.17
1019.446	18.73
1019.606	-0.84
1019.766	-28.55
1019.926	30.16
1020.087	40.04
1020.247	-28.16
1020.407	33.45
1020.567	49.92
1020.728	28.03
1020.888	15.63
1021.048	-9.56
1021.208	3.04
1021.368	13.5
1021.528	80.73
1021.688	25.51
1021.848	45.47
1022.008	16.02
1022.168	20.28
1022.328	23.19
1022.488	48.76
1022.648	-20.21
1022.808	15.05
1022.968	20.28
1023.128	-5.1
1023.288	4.78
1023.448	11.37
1023.608	28.8
1023.767	11.17
1023.927	7.88
1024.087	-21.96
1024.247	-15.18
1024.406	17.76
1024.566	-18.08
1024.726	-12.27
1024.885	11.75
1025.045	28.22
1025.205	18.15
1025.364	23.38
1025.524	46.05
1025.683	10.98
1025.843	43.92
1026.003	23.38
1026.162	47.79
1026.321	48.76
1026.481	24.54
1026.64	3.42
1026.8	7.88
1026.959	10.01
1027.119	9.82
1027.278	14.08
1027.437	-8.59
1027.597	3.04
1027.756	17.37
1027.915	2.07
1028.074	30.93
1028.234	23.77
1028.393	15.63
1028.552	28.03
1028.711	-37.07
1028.87	68.52
1029.03	-20.6
1029.189	12.53
1029.348	-21.38
1029.507	3.23
1029.666	-7.43
1029.825	-17.7
1029.984	-10.53
1030.143	17.18
1030.302	-2.58
1030.461	-23.9
1030.62	13.69
1030.779	25.12
1030.938	-12.46
1031.097	-12.27
1031.255	40.04
1031.414	54.77
1031.573	49.92
1031.732	-54.9
1031.891	14.27
1032.049	36.55
1032.208	38.68
1032.367	-14.98
1032.525	-12.66
1032.684	-13.24
1032.843	3.04
1033.001	-19.63
1033.16	153.58
1033.319	62.52
1033.477	45.47
1033.636	-2.2
1033.794	-48.89
1033.953	35.39
1034.111	53.02
1034.27	0.52
1034.428	19.89
1034.587	-5.88
1034.745	17.18
1034.903	-1.42
1035.062	14.08
1035.22	-26.8
1035.378	54.38
1035.537	-25.06
1035.695	44.69
1035.853	6.33
1036.011	39.07
1036.17	-5.88
1036.328	-59.54
1036.486	18.15
1036.644	19.89
1036.802	-47.53
1036.96	-28.35
1037.119	0.32
1037.277	5.17
1037.435	-39.98
1037.593	-18.47
1037.751	11.37
1037.909	13.11
1038.067	13.11
