Data from oakcork_FLMT105791__234__17-33-05-055.txt Node

Date: Mon Mar 20 17:33:05 GMT 2023
User: antho
Spectrometer: FLMT10579
Trigger mode: 0
Integration Time (sec): 1.000000E-1
Scans to average: 10
Electric dark correction enabled: true
Nonlinearity correction enabled: false
Boxcar width: 0
XAxis mode: Wavelengths
Number of Pixels in Spectrum: 3648
>>>>>Begin Spectral Data<<<<<
345.248	-132.09
345.464	-132.09
345.681	-132.09
345.898	-144.1
346.114	-145.26
346.331	-49.74
346.548	38.02
346.764	-22.04
346.981	-1.31
347.197	-12.93
347.414	21.94
347.631	-25.91
347.847	73.09
348.064	18.26
348.28	14.39
348.497	-62.14
348.713	8.38
348.93	36.47
349.146	7.22
349.363	6.25
349.579	25.04
349.796	7.99
350.012	33.18
350.229	39.38
350.445	12.06
350.661	9.15
350.878	4.5
351.094	9.35
351.311	20.39
351.527	26.2
351.743	-13.71
351.96	34.92
352.176	18.65
352.392	48.1
352.609	57.59
352.825	-1.5
353.041	20.39
353.257	-9.45
353.474	17.87
353.69	11.09
353.906	30.08
354.122	-13.51
354.339	67.08
354.555	1.02
354.771	12.84
354.987	68.05
355.203	82.97
355.42	-8.28
355.636	16.9
355.852	4.12
356.068	-8.28
356.284	-29.21
356.5	69.41
356.716	25.62
356.932	5.09
357.148	22.14
357.364	27.56
357.58	49.45
357.796	70.57
358.012	46.74
358.228	7.6
358.444	-45.87
358.66	65.73
358.876	33.18
359.092	-0.34
359.308	24.65
359.524	48.68
359.74	-6.54
359.956	29.11
360.172	11.29
360.388	56.43
360.604	-3.44
360.819	88.98
361.035	30.47
361.251	36.09
361.467	-14.29
361.683	55.85
361.898	28.92
362.114	63.02
362.33	18.26
362.546	65.34
362.762	35.31
362.977	2.18
363.193	11.29
363.409	64.95
363.624	2.57
363.84	-8.48
364.056	12.64
364.271	20.39
364.487	45.97
364.703	1.6
364.918	2.76
365.134	21.75
365.35	3.73
365.565	89.56
365.781	23.49
365.996	61.85
366.212	44.22
366.427	35.7
366.643	7.02
366.858	7.8
367.074	1.79
367.289	72.32
367.505	99.25
367.72	-15.84
367.936	-1.5
368.151	74.06
368.367	36.67
368.582	30.85
368.798	12.64
369.013	68.44
369.228	25.62
369.444	15.55
369.659	77.93
369.874	34.15
370.09	90.72
370.305	-24.56
370.52	-1.5
370.736	78.9
370.951	53.72
371.166	82.2
371.381	84.13
371.597	59.92
371.812	13.22
372.027	22.91
372.242	34.73
372.458	100.02
372.673	15.16
372.888	25.82
373.103	46.16
373.318	115.91
373.533	35.31
373.749	30.47
373.964	-5.76
374.179	65.53
374.394	-2.66
374.609	57.59
374.824	-4.8
375.039	77.93
375.254	10.7
375.469	86.46
375.684	61.08
375.899	84.72
376.114	55.07
376.329	53.33
376.544	90.92
376.759	82
376.974	13.42
377.189	23.88
377.404	19.62
377.619	82.78
377.834	21.94
378.049	18.45
378.264	15.16
378.478	56.62
378.693	29.3
378.908	47.9
379.123	43.06
379.338	62.44
379.553	49.65
379.767	46.74
379.982	92.08
380.197	57.79
380.412	46.16
380.626	72.7
380.841	123.85
381.056	49.84
381.271	103.7
381.485	23.3
381.7	48.68
381.915	51.39
382.129	13.8
382.344	53.33
382.559	28.92
382.773	44.42
382.988	-7.7
383.202	40.74
383.417	18.84
383.632	97.31
383.846	55.65
384.061	48.87
384.275	29.11
384.49	42.67
384.704	72.12
384.919	64.95
385.133	44.22
385.348	81.62
385.562	46.55
385.777	63.99
385.991	59.53
386.206	26.4
386.42	32.79
386.634	84.33
386.849	64.76
387.063	76.58
387.277	9.93
387.492	53.33
387.706	12.84
387.92	37.25
388.135	75.03
388.349	92.85
388.563	53.14
388.778	67.47
388.992	93.24
389.206	60.89
389.42	129.28
389.635	85.3
389.849	85.88
390.063	88.4
390.277	90.33
390.491	130.83
390.706	78.9
390.92	96.34
391.134	70.18
391.348	114.17
391.562	28.53
391.776	73.48
391.99	53.33
392.205	85.68
392.419	32.99
392.633	67.47
392.847	99.05
393.061	32.6
393.275	95.57
393.489	73.28
393.703	57.59
393.917	88.59
394.131	40.35
394.345	81.81
394.559	122.5
394.773	64.76
394.986	81.23
395.2	65.34
395.414	115.13
395.628	44.61
395.842	103.9
396.056	60.3
396.27	40.93
396.484	101.57
396.697	82.39
396.911	102.35
397.125	82.97
397.339	78.71
397.553	62.44
397.766	149.82
397.98	112.03
398.194	108.55
398.408	72.12
398.621	128.5
398.835	126.57
399.049	108.55
399.262	161.25
399.476	140.52
399.69	129.08
399.903	177.13
400.117	102.54
400.331	126.76
400.544	93.43
400.758	217.82
400.971	138.77
401.185	165.31
401.398	75.03
401.612	191.86
401.826	144
402.039	133.73
402.253	125.79
402.466	160.47
402.68	144.78
402.893	123.47
403.106	127.53
403.32	112.42
403.533	163.18
403.747	126.18
403.96	146.13
404.174	148.65
404.387	102.93
404.6	140.9
404.814	175.39
405.027	118.82
405.24	137.8
405.454	138
405.667	183.14
405.88	79.87
406.094	115.13
406.307	151.37
406.52	161.83
406.733	117.07
406.947	88.78
407.16	185.66
407.373	167.45
407.586	130.44
407.799	116.49
408.012	164.73
408.226	149.23
408.439	189.53
408.652	118.04
408.865	170.16
409.078	190.5
409.291	175.2
409.504	115.33
409.717	166.48
409.93	173.84
410.143	157.76
410.357	104.09
410.57	120.95
410.783	124.63
410.996	150.59
411.209	139.55
411.421	204.06
411.634	163.57
411.847	155.82
412.06	168.03
412.273	187.98
412.486	191.47
412.699	218.01
412.912	171.32
413.125	184.88
413.338	179.07
413.55	173.84
413.763	172.87
413.976	193.41
414.189	147.3
414.402	181.2
414.615	246.11
414.827	147.3
415.04	205.23
415.253	174.81
415.466	196.9
415.678	239.71
415.891	171.13
416.104	178.88
416.316	169.38
416.529	175.78
416.742	196.7
416.954	221.11
417.167	185.46
417.38	200.19
417.592	224.99
417.805	176.94
418.017	135.67
418.23	217.43
418.442	169.96
418.655	152.91
418.868	199.61
419.08	208.13
419.293	232.35
419.505	216.46
419.718	215.3
419.93	199.03
420.142	199.8
420.355	239.33
420.567	253.86
420.78	218.6
420.992	174.42
421.205	280.79
421.417	183.91
421.629	199.61
421.842	178.49
422.054	195.93
422.266	244.75
422.479	206.78
422.691	200
422.903	224.8
423.115	186.24
423.328	227.12
423.54	206.39
423.752	216.27
423.964	168.8
424.177	229.06
424.389	208.52
424.601	298.61
424.813	219.56
425.025	240.88
425.238	234.48
425.45	207.75
425.662	206.2
425.874	493.72
426.086	224.8
426.298	238.55
426.51	224.99
426.722	225.38
426.934	220.53
427.146	259.09
427.358	188.76
427.57	243.39
427.782	210.65
427.994	229.25
428.206	202.32
428.418	177.52
428.63	237.97
428.842	304.23
429.054	255.6
429.266	253.28
429.478	205.81
429.69	207.36
429.902	194.57
430.114	227.9
430.325	249.98
430.537	202.13
430.749	191.28
430.961	130.63
431.173	164.73
431.384	249.59
431.596	127.15
431.808	206.78
432.02	244.94
432.231	268
432.443	318.76
432.655	268.97
432.867	240.88
433.078	271.29
433.29	323.61
433.502	275.75
433.713	304.62
433.925	275.17
434.136	309.46
434.348	208.52
434.56	203.1
434.771	338.14
434.983	219.56
435.194	236.81
435.406	244.56
435.617	324.58
435.829	341.43
436.04	320.12
436.252	300.94
436.463	341.04
436.675	341.24
436.886	299.97
437.098	304.04
437.309	366.81
437.521	299.39
437.732	328.26
437.943	312.56
438.155	286.99
438.366	243.98
438.578	365.65
438.789	296.29
439	299.78
439.211	284.66
439.423	296.29
439.634	320.51
439.845	324.19
440.057	296.09
440.268	352.86
440.479	298.23
440.69	319.54
440.902	310.63
441.113	312.18
441.324	315.47
441.535	348.02
441.746	360.81
441.957	325.74
442.168	320.89
442.38	389.87
442.591	372.62
442.802	309.08
443.013	351.89
443.224	386.96
443.435	341.62
443.646	334.26
443.857	362.55
444.068	350.92
444.279	342.21
444.49	403.62
444.701	337.94
444.912	456.13
445.123	394.71
445.334	383.28
445.545	371.46
445.756	343.95
445.967	358.09
446.178	366.62
446.388	386.77
446.599	415.44
446.81	366.81
447.021	357.9
447.232	384.64
447.443	419.32
447.653	359.45
447.864	415.64
448.075	384.25
448.286	412.34
448.496	393.16
448.707	433.46
448.918	390.64
449.129	477.25
449.339	384.83
449.55	398.59
449.761	402.85
449.971	452.06
450.182	393.74
450.393	449.74
450.603	392.77
450.814	441.4
451.024	421.64
451.235	456.71
451.446	472.79
451.656	493.72
451.867	400.72
452.077	453.42
452.288	472.99
452.498	481.12
452.709	449.15
452.919	463.1
453.13	376.11
453.34	428.81
453.55	389.29
453.761	431.91
453.971	439.08
454.182	436.37
454.392	421.06
454.602	503.02
454.813	477.05
455.023	463.69
455.233	421.06
455.444	457.1
455.654	384.83
455.864	402.46
456.075	433.07
456.285	423.39
456.495	447.6
456.705	459.42
456.916	470.85
457.126	526.27
457.336	486.16
457.546	375.14
457.756	409.82
457.967	482.87
458.177	440.24
458.387	462.52
458.597	432.1
458.807	430.94
459.017	441.6
459.227	458.65
459.437	452.84
459.647	487.71
459.857	454.97
460.068	452.64
460.278	527.82
460.488	484.22
460.698	531.88
460.908	478.99
461.117	422.42
461.327	447.8
461.537	494.88
461.747	474.15
461.957	516
462.167	604.35
462.377	505.73
462.587	518.9
462.797	553.97
463.007	500.89
463.216	521.81
463.426	581.48
463.636	553.58
463.846	453.8
464.056	456.13
464.265	503.98
464.475	489.07
464.685	527.04
464.895	526.65
465.104	492.94
465.314	542.54
465.524	495.85
465.733	468.92
465.943	543.12
466.153	588.85
466.362	577.03
466.572	524.13
466.782	493.33
466.991	515.8
467.201	564.63
467.41	467.17
467.62	540.99
467.829	530.92
468.039	540.8
468.249	533.82
468.458	535.18
468.668	583.23
468.877	560.17
469.086	598.53
469.296	563.66
469.505	580.9
469.715	631.08
469.924	570.63
470.134	613.06
470.343	617.13
470.552	576.64
470.762	572.18
470.971	520.65
471.18	579.93
471.39	569.67
471.599	532.27
471.808	603.38
472.018	554.17
472.227	632.63
472.436	668.67
472.645	587.68
472.855	596.79
473.064	681.46
473.273	630.89
473.482	660.92
473.691	684.36
473.901	663.44
474.11	614.23
474.319	714.78
474.528	647.75
474.737	698.89
474.946	697.73
475.155	677.78
475.364	706.06
475.573	679.52
475.783	682.43
475.992	688.24
476.201	730.67
476.41	689.01
476.619	645.03
476.828	700.06
477.037	702.19
477.245	683.59
477.454	724.66
477.663	691.14
477.872	698.7
478.081	791.31
478.29	686.3
478.499	787.63
478.708	765.74
478.917	806.42
479.125	728.54
479.334	772.71
479.543	768.26
479.752	783.56
479.961	775.04
480.169	840.33
480.378	766.71
480.587	907.37
480.796	813.98
481.004	809.72
481.213	815.72
481.422	833.36
481.63	843.43
481.839	875.79
482.048	906.01
482.256	899.81
482.465	882.95
482.674	881.02
482.882	900.97
483.091	921.9
483.299	886.44
483.508	901.55
483.716	879.66
483.925	915.5
484.134	876.56
484.342	882.18
484.551	948.83
484.759	911.24
484.967	942.82
485.176	925.39
485.384	948.83
485.593	945.73
485.801	901.75
486.01	876.37
486.218	864.35
486.426	766.32
486.635	818.82
486.843	814.56
487.051	843.24
487.26	852.92
487.468	885.67
487.676	909.89
487.885	883.73
488.093	934.3
488.301	993
488.509	966.65
488.717	961.81
488.926	957.16
489.134	948.83
489.342	983.9
489.55	906.79
489.758	961.03
489.967	977.89
490.175	1080
490.383	999.59
490.591	1075.54
490.799	992.62
491.007	1072.63
491.215	1045.51
491.423	996.68
491.631	1035.43
491.839	1037.18
492.047	1049.38
492.255	967.04
492.463	980.41
492.671	1001.33
492.879	1031.95
493.087	1019.74
493.295	1062.36
493.503	1050.16
493.711	1065.85
493.919	1126.3
494.127	1108.09
494.334	1148.58
494.542	1067.21
494.75	1104.99
494.958	1091.23
495.166	1164.66
495.374	1126.49
495.581	1114.09
495.789	1139.67
495.997	1181.91
496.205	1127.46
496.412	1119.52
496.62	1118.55
496.828	1147.81
497.035	1110.22
497.243	1177.45
497.451	1143.16
497.658	1149.74
497.866	1154.39
498.074	1184.81
498.281	1123.59
498.489	1218.14
498.696	1138.12
498.904	1123.78
499.112	1129.59
499.319	1189.08
499.527	1149.55
499.734	1190.04
499.942	1107.51
500.149	1155.36
500.357	1165.24
500.564	1137.54
500.771	1118.74
500.979	1105.76
501.186	1074.18
501.394	1174.54
501.601	1125.53
501.808	1132.11
502.016	1139.48
502.223	1123.59
502.43	1147.03
502.638	1148.19
502.845	1135.02
503.052	1231.51
503.26	1159.82
503.467	1245.07
503.674	1185.78
503.881	1193.53
504.089	1219.49
504.296	1227.44
504.503	1135.02
504.71	1126.69
504.917	1150.71
505.125	1174.16
505.332	1219.49
505.539	1230.73
505.746	1287.69
505.953	1268.12
506.16	1255.72
506.367	1283.43
506.574	1284.21
506.781	1315.4
506.988	1202.83
507.195	1224.53
507.402	1222.98
507.609	1268.9
507.816	1197.99
508.023	1208.84
508.23	1211.16
508.437	1188.3
508.644	1278.59
508.851	1283.82
509.058	1295.64
509.265	1272.58
509.472	1313.46
509.679	1335.16
509.885	1269.09
510.092	1285.37
510.299	1265.8
510.506	1256.69
510.713	1279.56
510.92	1271.22
511.126	1307.45
511.333	1351.05
511.54	1371.97
511.746	1332.45
511.953	1365.58
512.16	1380.3
512.367	1315.59
512.573	1338.84
512.78	1330.9
512.987	1357.25
513.193	1316.95
513.4	1271.03
513.606	1331.29
513.813	1313.27
514.02	1332.25
514.226	1379.33
514.433	1362.29
514.639	1306.68
514.846	1308.04
515.052	1280.91
515.259	1289.05
515.465	1326.64
515.672	1324.31
515.878	1441.14
516.085	1377.78
516.291	1363.64
516.497	1325.28
516.704	1316.75
516.91	1267.93
517.117	1258.05
517.323	1193.14
517.529	1221.04
517.736	1208.64
517.942	1276.46
518.148	1290.21
518.354	1289.24
518.561	1252.62
518.767	1258.82
518.973	1312.49
519.179	1343.3
519.386	1311.91
519.592	1309.2
519.798	1326.83
520.004	1428.55
520.21	1349.89
520.417	1438.43
520.623	1437.07
520.829	1454.32
521.035	1405.68
521.241	1428.74
521.447	1435.52
521.653	1536.46
521.859	1461.1
522.065	1502.56
522.271	1565.53
522.477	1513.41
522.683	1523.29
522.889	1508.37
523.095	1504.3
523.301	1492.1
523.507	1442.11
523.713	1521.93
523.919	1441.72
524.125	1534.53
524.331	1495.78
524.537	1606.41
524.742	1553.32
524.948	1579.67
525.154	1637.41
525.36	1677.51
525.566	1622.49
525.772	1639.15
525.977	1547.31
526.183	1589.16
526.389	1610.09
526.595	1541.31
526.8	1523.48
527.006	1499.46
527.212	1464.39
527.417	1439.59
527.623	1440.37
527.829	1526.78
528.034	1531.62
528.24	1570.18
528.446	1535.11
528.651	1647.67
528.857	1626.75
529.062	1674.61
529.268	1662.4
529.473	1694.95
529.679	1660.27
529.884	1722.85
530.09	1698.05
530.295	1688.36
530.501	1696.69
530.706	1703.28
530.912	1648.26
531.117	1728.27
531.323	1707.35
531.528	1728.66
531.733	1756.56
531.939	1674.02
532.144	1761.21
532.35	1739.32
532.555	1765.86
532.76	1726.92
532.966	1708.9
533.171	1728.66
533.376	1662.98
533.581	1664.53
533.787	1730.4
533.992	1767.99
534.197	1752.1
534.402	1704.83
534.607	1741.64
534.813	1832.12
535.018	1741.06
535.223	1776.32
535.428	1797.64
535.633	1841.42
535.838	1820.11
536.043	1831.73
536.249	1925.7
536.454	1820.3
536.659	1818.75
536.864	1806.94
537.069	1820.3
537.274	1839.48
537.479	1788.34
537.684	1812.17
537.889	1768.77
538.094	1906.52
538.299	1825.53
538.504	1856.73
538.708	1852.47
538.913	1897.8
539.118	1852.85
539.323	1855.76
539.528	1807.32
539.733	1847.62
539.938	1864.87
540.142	1829.99
540.347	1826.5
540.552	1817.59
540.757	1792.99
540.962	1779.42
541.166	1783.3
541.371	1752.69
541.576	1826.12
541.781	1736.41
541.985	1879.2
542.19	1844.33
542.395	1946.05
542.599	1936.16
542.804	1861.96
543.008	1922.6
543.213	1873.97
543.418	1844.52
543.622	1882.3
543.827	1831.73
544.031	1944.88
544.236	1908.07
544.44	1925.51
544.645	1978.21
544.849	1899.93
545.054	1956.31
545.258	2004.56
545.463	1955.73
545.667	1882.11
545.872	1955.93
546.076	1918.53
546.281	1949.34
546.485	1888.7
546.689	1950.5
546.894	1958.64
547.098	1957.09
547.302	1913.11
547.507	1934.81
547.711	1940.62
547.915	1997.39
548.119	1869.13
548.324	1944.3
548.528	1995.06
548.732	1942.17
548.936	1940.43
549.141	1943.91
549.345	1948.56
549.549	1941.4
549.753	1954.76
549.957	2051.25
550.161	2006.49
550.366	1987.89
550.57	1954.38
550.774	1977.82
550.978	1916.98
551.182	2016.57
551.386	1943.53
551.59	1963.1
551.794	1935.2
551.998	2001.84
552.202	1988.67
552.406	1965.81
552.61	2032.07
552.814	1972.01
553.018	2034.2
553.222	1968.52
553.426	1963.68
553.63	2072.95
553.833	1980.53
554.037	1946.05
554.241	1988.09
554.445	2016.76
554.649	1988.09
554.853	1978.98
555.056	2015.21
555.26	2020.25
555.464	2011.73
555.668	2010.37
555.871	2026.26
556.075	2008.63
556.279	1963.29
556.483	1953.8
556.686	1993.51
556.89	1973.75
557.094	1981.89
557.297	1910.2
557.501	1979.76
557.704	1893.54
557.908	2011.14
558.112	1925.7
558.315	1985.76
558.519	1960.38
558.722	1944.3
558.926	1926.28
559.129	1841.03
559.333	1844.13
559.536	1871.45
559.74	1831.15
559.943	1840.26
560.147	1860.8
560.35	1855.37
560.553	1880.37
560.757	1827.47
560.96	1926.48
561.164	1873.39
561.367	1946.24
561.57	1913.88
561.774	1899.35
561.977	1894.51
562.18	1895.09
562.384	1947.98
562.587	1880.56
562.79	1827.28
562.993	1881.14
563.197	1885.4
563.4	1934.81
563.603	1904.39
563.806	1948.37
564.009	1850.72
564.212	1882.88
564.416	1809.07
564.619	1837.55
564.822	1816.23
565.025	1893.73
565.228	1828.05
565.431	1854.21
565.634	1732.34
565.837	1789.89
566.04	1755.4
566.243	1782.72
566.446	1674.41
566.649	1798.02
566.852	1739.12
567.055	1774.19
567.258	1828.83
567.461	1836.77
567.664	1839.48
567.867	1711.61
568.07	1788.92
568.273	1754.62
568.475	1815.65
568.678	1732.15
568.881	1696.5
569.084	1714.13
569.287	1645.93
569.489	1681.39
569.692	1765.86
569.895	1737.38
570.098	1643.02
570.3	1668.99
570.503	1619.58
570.706	1607.57
570.909	1592.07
571.111	1548.28
571.314	1535.3
571.516	1606.21
571.719	1631.01
571.922	1588.97
572.124	1601.56
572.327	1624.04
572.529	1567.08
572.732	1601.76
572.935	1625.2
573.137	1657.36
573.34	1620.36
573.542	1684.29
573.745	1629.85
573.947	1619.58
574.15	1598.08
574.352	1559.91
574.554	1666.08
574.757	1586.26
574.959	1550.99
575.162	1562.04
575.364	1533.75
575.566	1656.39
575.769	1529.1
575.971	1568.63
576.173	1441.92
576.376	1540.73
576.578	1589.74
576.78	1614.16
576.982	1457.8
577.185	1522.51
577.387	1490.55
577.589	1520.38
577.791	1552.16
577.993	1538.01
578.196	1515.35
578.398	1527.75
578.6	1547.31
578.802	1482.6
579.004	1447.92
579.206	1457.03
579.408	1515.73
579.61	1491.9
579.812	1568.63
580.014	1473.88
580.216	1481.25
580.418	1478.15
580.62	1517.48
580.822	1469.62
581.024	1517.48
581.226	1561.65
581.428	1481.25
581.63	1620.55
581.832	1535.11
582.034	1559.71
582.236	1530.65
582.438	1565.91
582.64	1587.42
582.841	1607.18
583.043	1645.93
583.245	1557.39
583.447	1541.31
583.649	1546.35
583.85	1562.43
584.052	1608.54
584.254	1517.67
584.456	1579.28
584.657	1518.25
584.859	1541.89
585.061	1524.84
585.262	1521.93
585.464	1491.51
585.666	1532.01
585.867	1530.46
586.069	1583.93
586.27	1553.9
586.472	1525.23
586.674	1488.61
586.875	1518.25
587.077	1485.7
587.278	1546.54
587.48	1451.6
587.681	1614.35
587.883	1503.33
588.084	1421.57
588.285	1449.08
588.487	1479.89
588.688	1430.87
588.89	1375.27
589.091	1349.11
589.292	1377.59
589.494	1330.7
589.695	1290.4
589.896	1214.26
590.098	1243.91
590.299	1327.41
590.5	1282.66
590.702	1345.43
590.903	1368.68
591.104	1372.75
591.305	1373.52
591.507	1417.7
591.708	1405.88
591.909	1383.98
592.11	1452.57
592.311	1426.03
592.512	1373.72
592.714	1355.12
592.915	1374.1
593.116	1378.95
593.317	1418.67
593.518	1438.43
593.719	1404.33
593.92	1446.76
594.121	1447.34
594.322	1410.92
594.523	1371.97
594.724	1339.62
594.925	1358.22
595.126	1398.71
595.327	1403.55
595.528	1405.1
595.729	1360.15
595.929	1344.65
596.13	1386.12
596.331	1386.7
596.532	1407.23
596.733	1478.15
596.934	1453.93
597.135	1428.74
597.335	1430.87
597.536	1396.97
597.737	1414.21
597.938	1392.12
598.138	1415.18
598.339	1413.63
598.54	1413.05
598.74	1400.65
598.941	1382.82
599.142	1476.6
599.342	1378.95
599.543	1389.02
599.744	1377.01
599.944	1389.02
600.145	1408.98
600.345	1405.3
600.546	1473.5
600.746	1467.1
600.947	1493.84
601.147	1401.23
601.348	1443.08
601.548	1389.22
601.749	1396.77
601.949	1307.65
602.15	1343.1
602.35	1397.16
602.551	1452.57
602.751	1381.08
602.951	1369.26
603.152	1329.93
603.352	1411.3
603.552	1412.66
603.753	1421.18
603.953	1437.85
604.153	1414.6
604.354	1389.02
604.554	1399.29
604.754	1391.73
604.954	1339.81
605.155	1411.11
605.355	1373.72
605.555	1420.6
605.755	1404.91
605.955	1400.26
606.155	1414.02
606.356	1396.58
606.556	1387.47
606.756	1422.35
606.956	1352.6
607.156	1428.16
607.356	1387.08
607.556	1388.05
607.756	1390.18
607.956	1404.13
608.156	1386.5
608.356	1347.37
608.556	1381.27
608.756	1346.01
608.956	1321.4
609.156	1350.66
609.356	1324.7
609.556	1347.75
609.755	1351.24
609.955	1352.79
610.155	1365.77
610.355	1375.65
610.555	1303.77
610.755	1359.38
610.954	1288.27
611.154	1344.65
611.354	1381.85
611.554	1322.76
611.753	1319.27
611.953	1248.17
612.153	1332.84
612.352	1353.76
612.552	1276.26
612.752	1249.72
612.951	1300.67
613.151	1314.04
613.351	1272.39
613.55	1254.95
613.75	1347.95
613.949	1289.44
614.149	1276.84
614.348	1297.77
614.548	1258.24
614.747	1233.25
614.947	1262.12
615.146	1194.31
615.346	1309
615.545	1288.08
615.745	1291.37
615.944	1318.5
616.144	1278.01
616.343	1314.24
616.542	1253.01
616.742	1256.89
616.941	1260.18
617.14	1177.26
617.34	1246.81
617.539	1276.46
617.738	1247.39
617.938	1313.07
618.137	1247.01
618.336	1235.57
618.535	1281.11
618.734	1231.89
618.934	1274.91
619.133	1245.46
619.332	1247.2
619.531	1246.81
619.73	1221.04
619.929	1271.22
620.128	1308.23
620.328	1343.88
620.527	1244.87
620.726	1247.97
620.925	1255.34
621.124	1255.53
621.323	1271.42
621.522	1209.42
621.721	1209.61
621.92	1162.34
622.119	1225.5
622.318	1244.87
622.517	1228.99
622.715	1241.19
622.914	1133.47
623.113	1239.84
623.312	1171.06
623.511	1221.62
623.71	1168.34
623.909	1212.13
624.107	1244.87
624.306	1159.24
624.505	1166.79
624.704	1160.4
624.902	1189.46
625.101	1222.98
625.3	1183.84
625.499	1143.54
625.697	1191.59
625.896	1170.28
626.095	1174.93
626.293	1109.83
626.492	1141.22
626.69	1181.71
626.889	1146.06
627.088	1186.94
627.286	1115.64
627.485	1142.96
627.683	1143.35
627.882	1124.56
628.08	1107.12
628.279	1091.04
628.477	1146.06
628.676	1079.61
628.874	1135.99
629.073	1080.96
629.271	1095.69
629.469	1118.55
629.668	1097.43
629.866	1107.9
630.065	1094.53
630.263	1107.7
630.461	1087.94
630.66	1143.74
630.858	1106.93
631.056	1129.98
631.254	1150.52
631.453	1099.18
631.651	1135.41
631.849	1101.5
632.047	1119.52
632.245	1092.2
632.444	1132.31
632.642	1149.55
632.84	1155.94
633.038	1089.88
633.236	1102.66
633.434	1137.93
633.632	1092.01
633.83	1111.96
634.028	1155.94
634.227	1151.29
634.425	1194.5
634.623	1119.13
634.821	1127.27
635.019	1134.83
635.216	1110.8
635.414	1164.08
635.612	1126.11
635.81	1132.5
636.008	1205.35
636.206	1104.41
636.404	1111
636.602	1108.67
636.8	1128.82
636.997	1138.51
637.195	1166.02
637.393	1131.53
637.591	1176.68
637.789	1147.03
637.986	1116.42
638.184	1143.35
638.382	1163.31
638.58	1147.61
638.777	1199.93
638.975	1129.01
639.173	1142.96
639.37	1132.89
639.568	1141.22
639.765	1156.91
639.963	1124.94
640.161	1164.28
640.358	1147.03
640.556	1079.41
640.753	1108.28
640.951	1092.4
641.148	1121.65
641.346	1141.8
641.543	1091.81
641.741	1113.13
641.938	1084.26
642.136	1096.85
642.333	1078.64
642.531	1157.3
642.728	1188.3
642.925	1104.02
643.123	1079.03
643.32	1114.09
643.517	1088.71
643.715	1076.7
643.912	1067.6
644.109	1104.99
644.306	1087.36
644.504	1059.46
644.701	1098.6
644.898	1143.16
645.095	1072.63
645.293	1092.2
645.49	1116.61
645.687	1094.72
645.884	1064.88
646.081	1033.3
646.278	1024.97
646.475	1086.78
646.672	1038.34
646.87	1058.68
647.067	1067.4
647.264	1047.06
647.461	999.59
647.658	949.41
647.855	1045.9
648.052	999.98
648.249	954.25
648.446	1022.84
648.642	1004.05
648.839	989.9
649.036	964.52
649.233	963.55
649.43	956.19
649.627	930.42
649.824	958.32
650.021	984.09
650.217	999.78
650.414	982.93
650.611	1021.29
650.808	1021.87
651.004	996.1
651.201	1008.89
651.398	1049.58
651.595	1014.12
651.791	971.11
651.988	1043.96
652.185	946.5
652.381	1008.5
652.578	940.88
652.775	992.81
652.971	966.46
653.168	980.22
653.364	989.71
653.561	957.55
653.757	967.43
653.954	956.58
654.15	964.91
654.347	1039.11
654.543	968.59
654.74	914.92
654.936	901.94
655.133	960.45
655.329	970.14
655.525	947.28
655.722	976.92
655.918	926.94
656.115	935.46
656.311	840.52
656.507	817.27
656.704	787.44
656.9	840.33
657.096	840.91
657.292	811.85
657.489	915.31
657.685	919.77
657.881	864.74
658.077	880.24
658.273	898.65
658.47	992.23
658.666	928.29
658.862	965.49
659.058	921.7
659.254	964.72
659.45	916.28
659.646	959.1
659.842	965.1
660.038	957.93
660.234	923.45
660.43	957.93
660.626	1038.73
660.822	987.19
661.018	989.52
661.214	934.69
661.41	913.18
661.606	983.7
661.802	1012.96
661.998	973.82
662.194	907.17
662.39	981.96
662.586	968.78
662.781	980.6
662.977	993
663.173	952.9
663.369	950.38
663.564	971.3
663.76	969.75
663.956	976.92
664.152	986.03
664.347	902.14
664.543	932.55
664.739	914.54
664.934	902.14
665.13	873.85
665.326	975.76
665.521	974.98
665.717	913.57
665.912	904.65
666.108	884.5
666.304	920.74
666.499	936.24
666.695	854.28
666.89	917.05
667.086	969.56
667.281	928.87
667.477	996.1
667.672	927.13
667.867	941.47
668.063	919.96
668.258	899.04
668.454	900.78
668.649	973.05
668.844	912.6
669.04	935.46
669.235	912.02
669.43	910.66
669.626	866.29
669.821	886.83
670.016	904.46
670.211	926.94
670.407	875.01
670.602	900.59
670.797	882.76
670.992	937.59
671.187	869.2
671.382	942.63
671.578	863.39
671.773	908.14
671.968	840.52
672.163	904.85
672.358	921.12
672.553	885.09
672.748	874.43
672.943	949.99
673.138	850.41
673.333	933.52
673.528	853.7
673.723	889.93
673.918	884.7
674.113	833.74
674.308	949.22
674.503	924.61
674.698	935.46
674.892	894.19
675.087	895.35
675.282	877.34
675.477	867.07
675.672	900.97
675.867	849.05
676.061	833.16
676.256	845.56
676.451	846.14
676.646	887.41
676.84	847.31
677.035	816.5
677.23	837.42
677.424	869.59
677.619	894.39
677.814	942.05
678.008	901.94
678.203	830.64
678.397	845.95
678.592	869.39
678.787	908.14
678.981	852.54
679.176	888.38
679.37	888.57
679.565	853.89
679.759	881.79
679.954	883.92
680.148	913.95
680.342	916.86
680.537	896.52
680.731	832.77
680.926	853.89
681.12	886.64
681.314	827.35
681.509	839.94
681.703	888.96
681.897	889.54
682.092	847.31
682.286	835.1
682.48	922.29
682.674	903.49
682.869	861.25
683.063	850.02
683.257	928.68
683.451	825.22
683.645	850.6
683.839	865.71
684.034	851.18
684.228	887.99
684.422	808.17
684.616	802.94
684.81	831.22
685.004	832
685.198	840.14
685.392	866.87
685.586	813.21
685.78	850.79
685.974	852.73
686.168	848.27
686.362	875.98
686.556	801.58
686.75	749.85
686.944	727.96
687.138	706.06
687.331	635.54
687.525	622.56
687.719	581.87
687.913	658.79
688.107	642.13
688.301	603.57
688.494	677.39
688.688	631.28
688.882	619.26
689.076	626.63
689.269	646.78
689.463	717.11
689.657	662.08
689.85	642.9
690.044	690.95
690.238	652.59
690.431	679.33
690.625	679.13
690.818	704.32
691.012	722.14
691.205	754.69
691.399	702.58
691.593	730.28
691.786	794.99
691.98	823.09
692.173	830.64
692.366	807.59
692.56	785.69
692.753	853.89
692.947	738.81
693.14	837.42
693.333	793.83
693.527	756.24
693.72	818.44
693.914	771.55
694.107	817.47
694.3	793.64
694.493	776.97
694.687	821.34
694.88	781.24
695.073	885.86
695.266	858.35
695.46	827.93
695.653	885.09
695.846	858.93
696.039	809.72
696.232	848.08
696.425	912.4
696.618	914.54
696.812	889.35
697.005	973.63
697.198	1015.67
697.391	943.21
697.584	972.08
697.777	1028.65
697.97	976.73
698.163	1006.37
698.356	994.94
698.549	1092.59
698.742	1030.98
698.935	982.15
699.127	996.49
699.32	970.92
699.513	995.52
699.706	1012.57
699.899	1032.91
700.092	1008.7
700.285	1039.11
700.477	988.55
700.67	1044.54
700.863	1057.52
701.056	1145.87
701.248	1121.26
701.441	1115.45
701.634	1074.38
701.826	1180.16
702.019	1091.62
702.212	1144.71
702.404	1081.93
702.597	1118.94
702.79	1117.78
702.982	1134.24
703.175	1216.2
703.367	1204.96
703.56	1179.39
703.752	1282.66
703.945	1265.61
704.137	1257.66
704.33	1261.92
704.522	1302.8
704.715	1294.67
704.907	1315.98
705.1	1339.23
705.292	1334.77
705.484	1336.32
705.677	1373.33
705.869	1372.55
706.061	1402.2
706.254	1454.32
706.446	1416.34
706.638	1410.92
706.831	1464
707.023	1421.77
707.215	1521.93
707.407	1487.83
707.599	1496.75
707.792	1533.75
707.984	1524.84
708.176	1582.19
708.368	1507.21
708.56	1565.14
708.752	1558.74
708.944	1533.75
709.136	1603.5
709.329	1575.79
709.521	1690.3
709.713	1664.34
709.905	1671.89
710.097	1716.26
710.289	1643.61
710.481	1669.18
710.672	1688.17
710.864	1715.87
711.056	1776.13
711.248	1759.08
711.44	1788.34
711.632	1770.9
711.824	1803.84
712.016	1855.76
712.207	1822.05
712.399	1811.2
712.591	1897.22
712.783	1878.43
712.975	1886.76
713.166	1849.56
713.358	1871.07
713.55	1946.24
713.741	1949.34
713.933	1943.53
714.125	1926.86
714.316	1947.79
714.508	1996.42
714.7	2007.85
714.891	1988.67
715.083	2001.46
715.274	1976.46
715.466	2015.6
715.657	2043.5
715.849	1992.54
716.04	2010.37
716.232	1949.73
716.423	2015.99
716.615	1950.89
716.806	1909.04
716.998	1865.45
717.189	1783.88
717.381	1755.59
717.572	1699.41
717.763	1738.35
717.955	1703.09
718.146	1685.46
718.337	1595.17
718.528	1600.21
718.72	1529.49
718.911	1575.41
719.102	1563.59
719.293	1620.36
719.485	1581.22
719.676	1587.23
719.867	1516.31
720.058	1538.01
720.249	1586.84
720.44	1610.28
720.632	1653.1
720.823	1680.61
721.014	1823.79
721.205	1787.95
721.396	1913.69
721.587	2025.68
721.778	2089.03
721.969	2077.02
722.16	2129.72
722.351	2172.92
722.542	2268.44
722.733	2261.08
722.924	2201.4
723.115	2248.49
723.305	2222.72
723.496	2237.44
723.687	2122.94
723.878	2164.79
724.069	2118.48
724.26	2142.51
724.45	2107.05
724.641	2098.33
724.832	2155.1
725.023	2105.5
725.213	2105.5
725.404	2074.89
725.595	2127.01
725.785	2114.02
725.976	2145.41
726.167	2156.07
726.357	2154.91
726.548	2277.35
726.739	2198.5
726.929	2224.46
727.12	2255.27
727.31	2293.24
727.501	2242.67
727.691	2251.97
727.882	2286.46
728.072	2359.11
728.263	2323.66
728.453	2373.84
728.644	2410.07
728.834	2375.97
729.024	2364.54
729.215	2360.47
729.405	2384.69
729.596	2479.82
729.786	2451.34
729.976	2497.64
730.167	2474.01
730.357	2447.27
730.547	2492.8
730.737	2506.75
730.928	2568.75
731.118	2579.6
731.308	2537.56
731.498	2579.21
731.688	2662.33
731.879	2685.39
732.069	2702.05
732.259	2765.6
732.449	2802.99
732.639	2888.82
732.829	2888.04
733.019	2922.34
733.209	3023.09
733.399	3045.95
733.589	3132.55
733.779	3100.39
733.969	3135.27
734.159	3199.98
734.349	3212.57
734.539	3267.01
734.729	3258.88
734.919	3285.23
735.109	3335.99
735.299	3301.31
735.488	3302.66
735.678	3364.47
735.868	3331.34
736.058	3325.14
736.248	3327.66
736.437	3289.88
736.627	3267.79
736.817	3431.51
737.007	3361.37
737.196	3432.67
737.386	3419.69
737.576	3345.68
737.765	3496.8
737.955	3429.37
738.144	3551.82
738.334	3524.12
738.524	3442.16
738.713	3518.69
738.903	3464.83
739.092	3523.15
739.282	3548.53
739.471	3525.09
739.661	3594.25
739.85	3599.1
740.04	3636.68
740.229	3624.48
740.419	3671.36
740.608	3682.99
740.797	3665.16
740.987	3737.24
741.176	3720.77
741.365	3685.9
741.555	3666.13
741.744	3766.11
741.933	3667.3
742.123	3752.35
742.312	3792.26
742.501	3807.18
742.69	3796.53
742.88	3742.86
743.069	3894.56
743.258	3783.35
743.447	3877.9
743.636	3852.91
743.825	3832.76
744.014	3903.28
744.204	3873.64
744.393	3817.84
744.582	3925.37
744.771	3927.69
744.96	3902.31
745.149	3951.52
745.338	3888.56
745.527	3926.14
745.716	3899.41
745.905	3863.17
746.094	3958.11
746.283	3953.65
746.471	3922.27
746.66	4005
746.849	3978.65
747.038	3976.9
747.227	3920.33
747.416	3967.41
747.604	3897.47
747.793	3960.24
747.982	3969.15
748.171	4023.02
748.359	3966.05
748.548	3967.6
748.737	3972.45
748.926	3944.35
749.114	3878.67
749.303	3953.65
749.491	3906.19
749.68	3866.86
749.869	3928.85
750.057	3939.32
750.246	3867.63
750.434	3909.67
750.623	3912.19
750.811	3892.62
751	3919.94
751.188	3906.96
751.377	3905.22
751.565	3878.67
751.754	3883.32
751.942	3826.36
752.131	3911.03
752.319	3814.35
752.507	3835.27
752.696	3898.44
752.884	3913.35
753.072	3860.85
753.261	3899.41
753.449	3885.46
753.637	3859.88
753.825	3947.84
754.014	3831.01
754.202	3868.02
754.39	3965.47
754.578	3913.35
754.766	3865.5
754.955	3845.16
755.143	3896.69
755.331	3868.02
755.519	3873.44
755.707	3876.54
755.895	3813.19
756.083	3823.46
756.271	3765.33
756.459	3800.79
756.647	3813.96
756.835	3788.19
757.023	3797.49
757.211	3774.44
757.399	3754.09
757.587	3777.54
757.775	3688.22
757.963	3743.05
758.151	3760.29
758.339	3688.41
758.526	3684.73
758.714	3698.3
758.902	3592.12
759.09	3477.42
759.278	3246.67
759.465	3001.19
759.653	2594.91
759.841	2363.18
760.028	2029.74
760.216	1755.2
760.404	1627.72
760.591	1339.04
760.779	1160.98
760.967	957.74
761.154	814.95
761.342	850.02
761.529	826.77
761.717	884.7
761.905	888.19
762.092	985.83
762.28	895.94
762.467	916.86
762.655	808.36
762.842	862.42
763.029	851.76
763.217	886.44
763.404	833.94
763.592	892.64
763.779	843.62
763.966	904.65
764.154	935.65
764.341	1003.08
764.528	1027.49
764.716	1093.95
764.903	1158.66
765.09	1253.01
765.277	1287.69
765.465	1489.58
765.652	1521.16
765.839	1605.24
766.026	1765.86
766.213	1769.35
766.4	1888.5
766.588	2146.19
766.775	2143.09
766.962	2265.73
767.149	2334.9
767.336	2471.49
767.523	2468.39
767.71	2604.01
767.897	2722.97
768.084	2811.32
768.271	2847.16
768.458	2932.61
768.645	3009.14
768.832	2988.02
769.019	3034.13
769.206	3068.42
769.392	3131.58
769.579	3239.31
769.766	3204.43
769.953	3202.3
770.14	3248.61
770.327	3270.89
770.513	3312.54
770.7	3373.58
770.887	3288.33
771.073	3327.46
771.26	3308.28
771.447	3320.49
771.634	3280.77
771.82	3392.17
772.007	3297.05
772.193	3307.89
772.38	3384.81
772.567	3329.59
772.753	3287.55
772.94	3343.35
773.126	3404.38
773.313	3404.38
773.499	3370.86
773.686	3388.3
773.872	3319.91
774.059	3360.4
774.245	3304.79
774.432	3322.04
774.618	3236.79
774.804	3323.98
774.991	3230.01
775.177	3292.2
775.363	3298.4
775.55	3321.46
775.736	3251.51
775.922	3297.63
776.109	3264.69
776.295	3282.32
776.481	3297.82
776.667	3299.76
776.853	3257.71
777.04	3263.33
777.226	3273.02
777.412	3331.34
777.598	3240.08
777.784	3206.95
777.97	3227.3
778.156	3231.95
778.342	3221.68
778.528	3172.47
778.715	3150.57
778.901	3180.22
779.087	3210.44
779.272	3141.66
779.458	3130.03
779.644	3135.85
779.83	3156
780.016	3231.56
780.202	3157.74
780.388	3122.87
780.574	3043.04
780.76	3113.18
780.946	3180.99
781.131	3154.45
781.317	3119.57
781.503	3064.16
781.689	3094.39
781.874	3202.3
782.06	3069
782.246	3085.47
782.432	3094.77
782.617	3060.09
782.803	3164.52
782.989	3053.31
783.174	3026.96
783.36	2977.36
783.545	3053.89
783.731	3066.29
783.916	2959.92
784.102	3013.79
784.288	2938.03
784.473	2962.06
784.659	2951.21
784.844	2999.45
785.029	2973.1
785.215	2932.22
785.4	2896.57
785.586	2972.91
785.771	2887.85
785.956	2975.62
786.142	2952.37
786.327	2948.69
786.512	2897.34
786.698	2902.19
786.883	2815
787.068	2833.21
787.254	2874.87
787.439	2828.56
787.624	2841.93
787.809	2840
787.994	2812.68
788.18	2857.05
788.365	2772.38
788.55	2793.5
788.735	2792.33
788.92	2764.05
789.105	2779.93
789.29	2763.47
789.475	2734.98
789.66	2757.85
789.845	2693.13
790.03	2706.12
790.215	2724.33
790.4	2745.64
790.585	2755.72
790.77	2714.45
790.955	2646.83
791.14	2690.81
791.325	2748.16
791.51	2620.48
791.695	2700.88
791.879	2652.64
792.064	2618.54
792.249	2675.89
792.434	2694.68
792.618	2645.47
792.803	2703.02
792.988	2669.89
793.173	2657.29
793.357	2721.03
793.542	2672.4
793.727	2704.95
793.911	2719.1
794.096	2659.04
794.281	2714.06
794.465	2784.2
794.65	2680.93
794.834	2745.06
795.019	2738.67
795.203	2745.83
795.388	2737.5
795.572	2785.55
795.757	2722.78
795.941	2710.96
796.126	2764.63
796.31	2646.25
796.494	2691.97
796.679	2659.04
796.863	2647.99
797.048	2783.61
797.232	2710.57
797.416	2730.33
797.601	2700.88
797.785	2792.91
797.969	2765.02
798.153	2725.3
798.338	2797.37
798.522	2787.49
798.706	2804.73
798.89	2764.63
799.074	2884.94
799.258	2803.96
799.443	2762.11
799.627	2762.3
799.811	2802.8
799.995	2740.02
800.179	2728.98
800.363	2736.92
800.547	2755.72
800.731	2790.4
800.915	2685.39
801.099	2717.16
801.283	2688.68
801.467	2705.53
801.651	2689.26
801.835	2764.82
802.019	2735.76
802.202	2767.73
802.386	2643.92
802.57	2711.15
802.754	2678.6
802.938	2643.54
803.121	2696.62
803.305	2725.49
803.489	2691.58
803.673	2712.12
803.856	2719.29
804.04	2691.39
804.224	2768.12
804.407	2680.15
804.591	2628.81
804.775	2676.86
804.958	2682.09
805.142	2801.25
805.326	2700.88
805.509	2742.54
805.693	2751.45
805.876	2784.2
806.06	2743.7
806.243	2773.35
806.427	2809.96
806.61	2815.2
806.794	2749.13
806.977	2795.63
807.16	2739.25
807.344	2762.3
807.527	2710.77
807.71	2754.55
807.894	2728.2
808.077	2736.92
808.26	2707.86
808.444	2691
808.627	2752.03
808.81	2620.67
808.993	2620.87
809.177	2601.49
809.36	2658.07
809.543	2632.1
809.726	2575.34
809.909	2557.71
810.092	2558.09
810.276	2554.41
810.459	2545.89
810.642	2543.95
810.825	2516.44
811.008	2482.53
811.191	2421.7
811.374	2429.83
811.557	2453.47
811.74	2462.96
811.923	2378.68
812.106	2368.8
812.289	2323.85
812.472	2379.07
812.654	2379.07
812.837	2307
813.02	2248.1
813.203	2216.9
813.386	2148.32
813.569	2099.69
813.751	2065.01
813.934	2106.66
814.117	2070.24
814.3	1990.41
814.482	1980.15
814.665	1925.9
814.848	1896.64
815.03	1827.47
815.213	1804.22
815.396	1826.7
815.578	1802.09
815.761	1753.07
815.943	1827.67
816.126	1689.52
816.309	1697.47
816.491	1642.83
816.674	1581.41
816.856	1668.99
817.039	1609.12
817.221	1700.37
817.403	1660.85
817.586	1654.84
817.768	1692.43
817.951	1577.93
818.133	1598.66
818.315	1612.41
818.498	1669.76
818.68	1732.54
818.862	1701.34
819.045	1717.62
819.227	1680.42
819.409	1709.29
819.591	1700.37
819.774	1651.36
819.956	1641.47
820.138	1727.11
820.32	1734.47
820.502	1811.78
820.684	1867.97
820.866	1877.07
821.048	1921.83
821.231	1918.73
821.413	1897.8
821.595	1886.95
821.777	1912.33
821.959	1925.31
822.141	1920.66
822.323	1799.57
822.505	1735.83
822.686	1704.25
822.868	1629.85
823.05	1512.83
823.232	1493.84
823.414	1408.2
823.596	1496.16
823.778	1477.37
823.96	1492.1
824.141	1517.67
824.323	1571.34
824.505	1636.05
824.687	1684.49
824.868	1735.05
825.05	1788.53
825.232	1846.27
825.413	1925.12
825.595	1867.19
825.777	1798.8
825.958	1832.32
826.14	1858.28
826.321	1864.87
826.503	1864.87
826.685	1869.71
826.866	1882.3
827.048	1882.5
827.229	1832.32
827.411	1767.22
827.592	1722.27
827.773	1723.24
827.955	1685.65
828.136	1668.21
828.318	1653.87
828.499	1696.11
828.68	1646.51
828.862	1681.77
829.043	1694.56
829.224	1620.55
829.406	1651.94
829.587	1637.02
829.768	1625.59
829.949	1677.12
830.131	1626.56
830.312	1699.6
830.493	1670.73
830.674	1725.95
830.855	1667.24
831.036	1697.27
831.218	1735.25
831.399	1725.75
831.58	1648.84
831.761	1701.15
831.942	1689.52
832.123	1666.66
832.304	1637.79
832.485	1675.38
832.666	1647.48
832.847	1697.86
833.028	1688.56
833.209	1648.64
833.389	1641.67
833.57	1596.91
833.751	1602.92
833.932	1673.06
834.113	1681.97
834.294	1641.67
834.475	1712.39
834.655	1716.26
834.836	1750.75
835.017	1708.12
835.198	1692.43
835.378	1749
835.559	1738.93
835.74	1701.34
835.92	1682.16
836.101	1686.23
836.281	1738.35
836.462	1721.3
836.643	1762.76
836.823	1756.75
837.004	1757.53
837.184	1791.24
837.365	1813.72
837.545	1817.01
837.726	1739.32
837.906	1820.3
838.087	1754.62
838.267	1734.67
838.448	1738.35
838.628	1749.97
838.808	1737.19
838.989	1779.23
839.169	1721.3
839.349	1751.14
839.53	1762.37
839.71	1796.28
839.89	1739.51
840.07	1816.43
840.251	1743.77
840.431	1807.9
840.611	1759.66
840.791	1687.2
840.971	1798.8
841.151	1735.25
841.332	1725.75
841.512	1799.96
841.692	1712.58
841.872	1738.54
842.052	1718.01
842.232	1720.33
842.412	1692.24
842.592	1729.63
842.772	1772.45
842.952	1740.29
843.132	1691.27
843.312	1681.58
843.492	1703.86
843.672	1761.99
843.851	1667.63
844.031	1716.65
844.211	1719.75
844.391	1714.32
844.571	1722.07
844.751	1709.09
844.93	1710.45
845.11	1662.98
845.29	1732.54
845.47	1725.37
845.649	1719.36
845.829	1740.09
846.009	1688.36
846.188	1713.36
846.368	1687.97
846.547	1678.09
846.727	1754.62
846.907	1652.52
847.086	1691.66
847.266	1696.5
847.445	1673.44
847.625	1675.57
847.804	1652.91
847.984	1656.01
848.163	1630.43
848.343	1621.71
848.522	1684.68
848.701	1673.64
848.881	1621.52
849.06	1634.11
849.239	1664.72
849.419	1646.12
849.598	1566.3
849.777	1562.04
849.957	1582.19
850.136	1502.36
850.315	1480.66
850.494	1526.39
850.674	1526
850.853	1563.59
851.032	1539.76
851.211	1612.22
851.39	1571.14
851.569	1523.68
851.748	1516.31
851.927	1573.86
852.107	1508.18
852.286	1516.7
852.465	1496.36
852.644	1582.19
852.823	1586.06
853.002	1570.18
853.181	1544.02
853.359	1512.44
853.538	1475.82
853.717	1532.78
853.896	1440.17
854.075	1378.56
854.254	1362.67
854.433	1303
854.611	1351.44
854.79	1290.21
854.969	1331.87
855.148	1364.8
855.327	1321.02
855.505	1374.1
855.684	1387.67
855.863	1409.95
856.041	1365
856.22	1411.88
856.399	1378.95
856.577	1459.55
856.756	1458
856.934	1585.68
857.113	1536.85
857.291	1467.3
857.47	1426.42
857.648	1451.02
857.827	1488.8
858.005	1507.98
858.184	1421.18
858.362	1530.07
858.541	1476.21
858.719	1429.71
858.898	1476.01
859.076	1456.64
859.254	1486.09
859.433	1413.43
859.611	1451.41
859.789	1378.37
859.967	1477.95
860.146	1473.69
860.324	1439.78
860.502	1444.43
860.68	1406.46
860.859	1403.17
861.037	1408.2
861.215	1404.13
861.393	1425.83
861.571	1405.88
861.749	1387.28
861.927	1394.25
862.105	1410.33
862.283	1412.08
862.461	1369.26
862.639	1352.21
862.817	1369.84
862.995	1386.5
863.173	1362.09
863.351	1412.47
863.529	1384.18
863.707	1402.58
863.885	1433.78
864.063	1363.25
864.241	1343.88
864.418	1487.25
864.596	1346.98
864.774	1327.99
864.952	1333.8
865.129	1384.76
865.307	1315.2
865.485	1268.9
865.663	1334.19
865.84	1279.94
866.018	1274.52
866.196	1179
866.373	1196.24
866.551	1130.18
866.728	1108.09
866.906	1155.56
867.084	1154.39
867.261	1245.26
867.439	1196.05
867.616	1268.71
867.794	1244.49
867.971	1246.81
868.149	1227.63
868.326	1295.64
868.503	1293.7
868.681	1256.5
868.858	1249.14
869.035	1205.54
869.213	1258.82
869.39	1255.92
869.567	1308.62
869.745	1254.56
869.922	1248.17
870.099	1246.23
870.276	1282.46
870.454	1284.21
870.631	1261.92
870.808	1250.69
870.985	1263.28
871.162	1266.96
871.339	1267.93
871.517	1194.11
871.694	1211.94
871.871	1253.79
872.048	1210.77
872.225	1201.86
872.402	1237.51
872.579	1178.03
872.756	1204.19
872.933	1200.51
873.11	1203.8
873.287	1176.48
873.463	1173.19
873.64	1183.65
873.817	1212.71
873.994	1203.41
874.171	1163.11
874.348	1195.66
874.524	1145.87
874.701	1184.43
874.878	1151.1
875.055	1206.12
875.231	1170.28
875.408	1203.61
875.585	1097.24
875.762	1124.56
875.938	1167.38
876.115	1139.09
876.291	1131.73
876.468	1105.96
876.645	1070.11
876.821	1123.01
876.998	1107.9
877.174	1141.99
877.351	1128.04
877.527	1106.54
877.704	1130.37
877.88	1098.79
878.057	1110.8
878.233	1165.05
878.409	1096.66
878.586	1115.06
878.762	1086
878.938	1119.13
879.115	1022.26
879.291	1091.62
879.467	1034.46
879.644	1063.91
879.82	1098.21
879.996	1079.8
880.172	996.3
880.349	1074.18
880.525	1087.55
880.701	1045.51
880.877	1051.13
881.053	1060.62
881.229	1037.95
881.405	1085.42
881.581	1047.25
881.757	1064.11
881.933	1038.73
882.109	1078.83
882.285	1055.97
882.461	998.04
882.637	1038.34
882.813	1028.26
882.989	1045.51
883.165	1069.15
883.341	1033.11
883.517	1070.31
883.693	1044.93
883.869	1068.95
884.044	1018
884.22	1072.44
884.396	1087.55
884.572	1056.16
884.747	1106.73
884.923	1089.68
885.099	1048.61
885.275	1093.95
885.45	1015.28
885.626	1012.18
885.801	1004.43
885.977	1057.91
886.153	969.75
886.328	1051.51
886.504	1011.41
886.679	1031.56
886.855	1019.16
887.03	1042.41
887.206	1090.07
887.381	1037.56
887.557	1069.15
887.732	1064.88
887.908	1070.5
888.083	1056.55
888.258	1043.76
888.434	1020.71
888.609	1040.86
888.784	1083.87
888.96	1023.81
889.135	1022.07
889.31	1006.18
889.485	1053.06
889.661	1039.89
889.836	1115.45
890.011	1045.12
890.186	1020.71
890.361	990.68
890.537	1055.97
890.712	1040.47
890.887	1037.95
891.062	1034.08
891.237	1085.03
891.412	984.48
891.587	1040.66
891.762	1079.8
891.937	1070.31
892.112	1002.88
892.287	1017.61
892.462	995.91
892.637	945.92
892.812	940.3
892.987	961.42
893.161	925.77
893.336	960.65
893.511	964.72
893.686	966.27
893.861	946.7
894.035	912.6
894.21	945.73
894.385	883.73
894.56	957.35
894.734	839.17
894.909	854.09
895.084	876.37
895.258	846.53
895.433	839.56
895.608	819.21
895.782	788.21
895.957	780.46
896.131	783.95
896.306	745.78
896.48	740.74
896.655	732.8
896.829	689.59
897.004	645.03
897.178	683.59
897.353	708.78
897.527	711.1
897.701	694.24
897.876	658.4
898.05	746.56
898.224	714.98
898.399	749.46
898.573	659.37
898.747	564.63
898.921	615.97
899.096	559.01
899.27	529.75
899.444	560.37
899.618	596.01
899.792	597.95
899.967	609
900.141	666.54
900.315	573.15
900.489	587.3
900.663	603.18
900.837	597.76
901.011	548.93
901.185	665.76
901.359	597.95
901.533	619.26
901.707	589.23
901.881	603.76
902.055	551.07
902.229	576.06
902.403	678.36
902.576	607.83
902.75	589.43
902.924	732.61
903.098	664.02
903.272	699.86
903.446	724.28
903.619	719.04
903.793	764.58
903.967	718.27
904.14	779.88
904.314	781.04
904.488	753.73
904.661	778.52
904.835	763.22
905.009	784.34
905.182	836.26
905.356	780.46
905.529	761.48
905.703	722.14
905.876	737.26
906.05	698.89
906.223	682.43
906.397	642.13
906.57	615.78
906.744	605.51
906.917	592.33
907.09	589.62
907.264	596.01
907.437	564.05
907.61	522.97
907.784	560.37
907.957	571.02
908.13	552.23
908.304	559.98
908.477	539.83
908.65	522.2
908.823	509.8
908.996	588.85
909.17	539.83
909.343	521.42
909.516	530.53
909.689	528.59
909.862	494.49
910.035	549.52
910.208	477.83
910.381	499.14
910.554	568.89
910.727	489.07
910.9	524.72
911.073	479.77
911.246	588.07
911.419	585.75
911.592	554.75
911.765	514.06
911.938	507.28
912.11	543.12
912.283	500.69
912.456	556.1
912.629	539.44
912.802	516.19
912.974	455.74
913.147	409.05
913.32	385.99
913.493	420.67
913.665	461.94
913.838	440.44
914.01	453.61
914.183	481.9
914.356	452.84
914.528	499.72
914.701	517.93
914.873	502.82
915.046	442.57
915.218	421.25
915.391	365.84
915.563	381.54
915.736	430.17
915.908	454.77
916.081	458.45
916.253	453.61
916.425	456.9
916.598	471.44
916.77	449.74
916.942	415.05
917.115	345.5
917.287	426.29
917.459	385.61
917.632	361.19
917.804	343.95
917.976	406.92
918.148	443.15
918.32	415.25
918.493	436.17
918.665	502.82
918.837	446.83
919.009	503.4
919.181	492.17
919.353	475.89
919.525	485.39
919.697	470.47
919.869	509.6
920.041	527.43
920.213	603.38
920.385	552.23
920.557	492.75
920.729	521.42
920.901	480.74
921.073	494.49
921.244	480.35
921.416	526.27
921.588	473.95
921.76	507.86
921.932	528.2
922.103	470.66
922.275	472.79
922.447	482.67
922.619	408.86
922.79	470.47
922.962	474.34
923.134	454.39
923.305	417.38
923.477	398.59
923.648	387.74
923.82	415.44
923.991	388.51
924.163	383.86
924.335	397.23
924.506	386.38
924.677	447.22
924.849	402.66
925.02	392.39
925.192	444.5
925.363	411.76
925.535	409.05
925.706	397.42
925.877	445.28
926.049	407.69
926.22	416.99
926.391	420.87
926.562	453.22
926.734	404.21
926.905	414.28
927.076	378.05
927.247	395.29
927.419	355.57
927.59	304.81
927.761	340.85
927.932	319.15
928.103	345.89
928.274	289.51
928.445	275.56
928.616	304.04
928.787	286.79
928.958	316.83
929.129	295.71
929.3	274.59
929.471	225.18
929.642	206.2
929.813	172.87
929.984	240.68
930.155	165.31
930.326	216.66
930.496	185.46
930.667	123.85
930.838	185.46
931.009	157.95
931.18	160.86
931.35	163.38
931.521	156.21
931.692	116.1
931.863	80.84
932.033	93.43
932.204	125.21
932.374	127.34
932.545	82.78
932.716	119.78
932.886	142.65
933.057	64.37
933.227	34.15
933.398	133.54
933.568	70.96
933.739	30.47
933.909	54.3
934.08	100.22
934.25	15.94
934.421	54.49
934.591	36.86
934.761	33.95
934.932	18.26
935.102	47.9
935.272	29.5
935.443	30.27
935.613	44.42
935.783	69.22
935.953	26.01
936.123	151.37
936.294	29.5
936.464	39.38
936.634	37.25
936.804	-15.84
936.974	8.77
937.144	72.12
937.314	68.44
937.484	38.02
937.655	-1.89
937.825	76.38
937.995	24.46
938.165	92.66
938.334	31.05
938.504	73.67
938.674	30.66
938.844	78.32
939.014	127.15
939.184	113
939.354	128.5
939.524	120.95
939.694	93.63
939.863	77.35
940.033	160.08
940.203	135.28
940.373	109.32
940.542	116.1
940.712	82.39
940.882	115.72
941.051	140.32
941.221	108.55
941.391	161.44
941.56	65.92
941.73	54.88
941.899	181.98
942.069	83.55
942.238	121.14
942.408	92.47
942.577	94.4
942.747	76.97
942.916	29.11
943.086	65.15
943.255	115.33
943.425	111.45
943.594	76.58
943.763	25.43
943.933	43.45
944.102	11.29
944.271	66.7
944.441	65.92
944.61	46.16
944.779	72.12
944.948	134.9
945.117	15.35
945.287	63.79
945.456	7.02
945.625	44.03
945.794	95.37
945.963	29.69
946.132	75.42
946.301	62.63
946.47	85.49
946.639	27.56
946.808	41.12
946.977	54.49
947.146	120.56
947.315	57.79
947.484	96.73
947.653	69.02
947.822	57.01
947.991	26.79
948.16	123.85
948.329	94.4
948.498	72.32
948.666	54.88
948.835	88.78
949.004	14
949.173	53.72
949.341	64.57
949.51	70.18
949.679	93.05
949.847	115.33
950.016	133.73
950.185	103.32
950.353	55.46
950.522	82.2
950.69	120.37
950.859	57.59
951.028	114.17
951.196	96.34
951.365	52.17
951.533	70.38
951.701	92.27
951.87	108.16
952.038	6.64
952.207	89.56
952.375	115.33
952.543	60.5
952.712	64.37
952.88	39.77
953.048	151.17
953.217	57.2
953.385	94.6
953.553	114.55
953.721	44.8
953.89	88.78
954.058	45.39
954.226	25.82
954.394	83.17
954.562	26.79
954.73	76.38
954.898	85.49
955.067	83.94
955.235	76.97
955.403	100.41
955.571	129.86
955.739	69.02
955.907	33.57
956.075	74.06
956.243	34.34
956.41	89.75
956.578	14.97
956.746	19.23
956.914	68.63
957.082	83.75
957.25	107.77
957.418	58.75
957.585	93.63
957.753	111.26
957.921	63.79
958.089	79.48
958.256	103.7
958.424	94.98
958.592	69.6
958.759	53.14
958.927	77.93
959.095	38.02
959.262	62.44
959.43	87.62
959.597	68.25
959.765	47.52
959.932	43.06
960.1	96.34
960.267	72.51
960.435	83.94
960.602	103.51
960.77	65.53
960.937	46.55
961.104	55.07
961.272	73.28
961.439	55.27
961.606	95.18
961.774	118.23
961.941	73.67
962.108	70.57
962.275	73.28
962.443	134.51
962.61	88.2
962.777	128.7
962.944	112.23
963.111	111.07
963.278	98.67
963.446	96.53
963.613	70.38
963.78	115.52
963.947	99.63
964.114	88.78
964.281	160.86
964.448	97.5
964.615	66.31
964.782	81.62
964.949	108.35
965.116	113.97
965.282	125.21
965.449	87.04
965.616	58.95
965.783	122.5
965.95	102.54
966.117	74.64
966.283	93.43
966.45	86.27
966.617	106.61
966.784	152.53
966.95	123.27
967.117	115.52
967.284	84.72
967.45	100.8
967.617	143.23
967.784	131.8
967.95	171.13
968.117	109.32
968.283	145.55
968.45	179.46
968.616	107.58
968.783	134.32
968.949	151.95
969.116	178.88
969.282	104.09
969.449	134.32
969.615	131.99
969.781	71.35
969.948	95.18
970.114	49.45
970.28	158.92
970.447	111.65
970.613	166.28
970.779	106.8
970.945	128.89
971.112	106.8
971.278	120.56
971.444	112.81
971.61	154.66
971.776	110.48
971.942	110.48
972.108	127.15
972.275	98.86
972.441	111.84
972.607	192.44
972.773	101.77
972.939	142.45
973.105	97.7
973.271	101.77
973.437	118.23
973.602	85.1
973.768	144
973.934	88.98
974.1	133.73
974.266	49.65
974.432	113.58
974.598	93.82
974.763	136.83
974.929	87.23
975.095	202.71
975.261	57.01
975.426	44.42
975.592	89.75
975.758	176.55
975.923	84.33
976.089	60.11
976.255	114.75
976.42	137.61
976.586	144.39
976.751	116.3
976.917	152.53
977.082	105.06
977.248	62.44
977.413	49.84
977.579	99.25
977.744	118.23
977.91	57.4
978.075	86.85
978.24	128.12
978.406	106.03
978.571	85.49
978.736	74.25
978.902	125.79
979.067	76
979.232	26.01
979.397	101.57
979.563	135.09
979.728	52.36
979.893	101.57
980.058	56.24
980.223	142.26
980.388	96.34
980.554	91.11
980.719	73.28
980.884	103.7
981.049	118.82
981.214	94.79
981.379	118.43
981.544	79.1
981.709	99.44
981.874	84.91
982.039	91.88
982.204	138
982.368	112.62
982.533	87.43
982.698	146.91
982.863	128.7
983.028	69.41
983.193	109.71
983.357	103.7
983.522	118.82
983.687	107
983.852	97.5
984.016	84.52
984.181	97.12
984.346	119.98
984.51	110.68
984.675	80.65
984.839	89.17
985.004	121.14
985.168	120.17
985.333	109.9
985.498	100.8
985.662	123.08
985.827	107.77
985.991	117.85
986.155	88.01
986.32	107.97
986.484	132.57
986.649	139.16
986.813	52.17
986.977	103.12
987.142	120.17
987.306	65.73
987.47	75.42
987.634	101.57
987.799	103.9
987.963	134.7
988.127	104.67
988.291	162.41
988.455	104.67
988.62	76.58
988.784	130.44
988.948	111.26
989.112	60.11
989.276	110.1
989.44	100.41
989.604	73.87
989.768	54.3
989.932	155.43
990.096	51.78
990.26	43.64
990.424	42.87
990.588	88.2
990.752	147.88
990.915	107.19
991.079	65.92
991.243	88.2
991.407	115.91
991.571	79.29
991.734	89.37
991.898	111.84
992.062	155.05
992.226	70.18
992.389	76
992.553	42.87
992.717	58.17
992.88	92.27
993.044	96.34
993.207	88.4
993.371	109.52
993.535	92.47
993.698	68.83
993.862	118.62
994.025	134.12
994.189	87.43
994.352	92.85
994.515	109.52
994.679	131.41
994.842	104.48
995.006	131.8
995.169	58.17
995.332	59.14
995.496	122.5
995.659	38.41
995.822	64.37
995.985	83.75
996.149	127.15
996.312	63.4
996.475	116.49
996.638	48.68
996.801	148.27
996.964	132.96
997.128	69.6
997.291	101.96
997.454	100.41
997.617	27.17
997.78	114.94
997.943	54.69
998.106	103.9
998.269	38.02
998.432	67.28
998.595	57.79
998.758	30.85
998.92	39.77
999.083	24.27
999.246	72.32
999.409	32.99
999.572	28.92
999.735	75.42
999.897	86.85
1000.06	44.61
1000.223	32.99
1000.386	90.53
1000.548	94.6
1000.711	80.84
1000.874	85.68
1001.036	28.14
1001.199	113.58
1001.361	47.71
1001.524	42.09
1001.687	116.49
1001.849	46.16
1002.012	71.73
1002.174	69.6
1002.337	100.41
1002.499	49.45
1002.661	75.22
1002.824	40.93
1002.986	25.62
1003.149	49.45
1003.311	47.13
1003.473	98.67
1003.636	24.46
1003.798	91.5
1003.96	52.36
1004.123	90.92
1004.285	60.89
1004.447	50.81
1004.609	46.94
1004.771	135.67
1004.933	-0.92
1005.096	30.47
1005.258	-3.83
1005.42	23.1
1005.582	88.01
1005.744	72.7
1005.906	26.98
1006.068	61.27
1006.23	8.19
1006.392	16.71
1006.554	49.65
1006.716	83.36
1006.878	71.15
1007.04	17.1
1007.202	47.71
1007.363	66.7
1007.525	34.15
1007.687	63.6
1007.849	80.45
1008.011	16.13
1008.172	27.17
1008.334	47.52
1008.496	58.95
1008.658	15.94
1008.819	29.3
1008.981	-0.15
1009.143	22.14
1009.304	41.51
1009.466	37.05
1009.627	97.12
1009.789	131.02
1009.95	69.41
1010.112	20
1010.273	73.87
1010.435	28.72
1010.596	40.15
1010.758	45.19
1010.919	25.24
1011.081	-6.73
1011.242	42.48
1011.403	88.01
1011.565	40.74
1011.726	60.3
1011.887	25.43
1012.049	34.92
1012.21	71.54
1012.371	92.85
1012.532	-10.41
1012.693	56.82
1012.855	28.72
1013.016	44.03
1013.177	58.95
1013.338	23.88
1013.499	77.16
1013.66	57.98
1013.821	58.56
1013.982	65.34
1014.143	18.45
1014.304	27.75
1014.465	50.23
1014.626	63.79
1014.787	15.35
1014.948	133.54
1015.109	-34.05
1015.27	49.84
1015.431	36.86
1015.592	17.29
1015.752	87.82
1015.913	51.39
1016.074	28.53
1016.235	29.3
1016.395	47.32
1016.556	48.1
1016.717	28.72
1016.877	71.73
1017.038	18.26
1017.199	53.52
1017.359	26.01
1017.52	63.6
1017.681	14.97
1017.841	38.02
1018.002	40.93
1018.162	10.32
1018.323	83.55
1018.483	5.67
1018.644	27.17
1018.804	-13.71
1018.964	-15.45
1019.125	33.37
1019.285	24.27
1019.446	10.51
1019.606	-0.53
1019.766	-36.96
1019.926	50.81
1020.087	41.51
1020.247	0.82
1020.407	27.37
1020.567	69.22
1020.728	14.58
1020.888	-14.48
1021.048	31.24
1021.208	5.47
1021.368	12.64
1021.528	78.32
1021.688	63.02
1021.848	38.02
1022.008	46.74
1022.168	20.97
1022.328	47.52
1022.488	47.32
1022.648	16.9
1022.808	45.58
1022.968	47.13
1023.128	7.8
1023.288	14.97
1023.448	14.19
1023.608	43.06
1023.767	26.01
1023.927	8.19
1024.087	9.35
1024.247	-4.99
1024.406	8.38
1024.566	-8.28
1024.726	-22.43
1024.885	2.18
1025.045	68.63
1025.205	17.1
1025.364	20.59
1025.524	49.65
1025.683	16.32
1025.843	28.72
1026.003	1.6
1026.162	81.42
1026.321	44.8
1026.481	37.64
1026.64	8.57
1026.8	18.84
1026.959	30.85
1027.119	25.04
1027.278	22.52
1027.437	-6.93
1027.597	23.88
1027.756	11.48
1027.915	9.35
1028.074	30.27
1028.234	-9.83
1028.393	37.83
1028.552	-9.64
1028.711	-55.94
1028.87	47.71
1029.03	-23.78
1029.189	4.12
1029.348	-32.69
1029.507	7.22
1029.666	41.7
1029.825	-18.16
1029.984	-12.16
1030.143	50.62
1030.302	-6.35
1030.461	-21.26
1030.62	15.55
1030.779	46.94
1030.938	-9.64
1031.097	-7.12
1031.255	31.44
1031.414	68.05
1031.573	60.89
1031.732	-22.62
1031.891	6.64
1032.049	49.84
1032.208	29.3
1032.367	1.6
1032.525	0.82
1032.684	7.6
1032.843	22.91
1033.001	-54.01
1033.16	131.6
1033.319	69.02
1033.477	48.68
1033.636	7.6
1033.794	-11.19
1033.953	26.79
1034.111	39.19
1034.27	9.74
1034.428	30.47
1034.587	-3.44
1034.745	24.65
1034.903	32.99
1035.062	34.92
1035.22	-17.78
1035.378	42.67
1035.537	-0.34
1035.695	30.85
1035.853	15.74
1036.011	42.67
1036.17	18.07
1036.328	-33.47
1036.486	10.9
1036.644	7.22
1036.802	-96.24
1036.96	0.63
1037.119	24.27
1037.277	-5.96
1037.435	-24.75
1037.593	2.37
1037.751	21.17
1037.909	41.51
1038.067	41.51
