Data from oakcork_FLMT105791__223__17-32-54-055.txt Node

Date: Mon Mar 20 17:32:54 GMT 2023
User: antho
Spectrometer: FLMT10579
Trigger mode: 0
Integration Time (sec): 1.000000E-1
Scans to average: 10
Electric dark correction enabled: true
Nonlinearity correction enabled: false
Boxcar width: 0
XAxis mode: Wavelengths
Number of Pixels in Spectrum: 3648
>>>>>Begin Spectral Data<<<<<
345.248	-155.76
345.464	-155.76
345.681	-155.76
345.898	-138.71
346.114	-154.01
346.331	-23.04
346.548	35.67
346.764	10.28
346.981	-32.92
347.197	-15.29
347.414	15.9
347.631	-17.42
347.847	62.21
348.064	-18.39
348.28	-11.8
348.497	-9.48
348.713	4.28
348.93	61.82
349.146	19.58
349.363	11.64
349.579	42.83
349.796	37.8
350.012	8.93
350.229	38.96
350.445	30.63
350.661	-2.12
350.878	31.6
351.094	31.6
351.311	25.59
351.527	21.72
351.743	0.98
351.96	23.85
352.176	52.13
352.392	46.52
352.609	-1.15
352.825	-1.73
353.041	13.38
353.257	10.09
353.474	25.01
353.69	47.68
353.906	19.39
354.122	-24.01
354.339	69.77
354.555	30.63
354.771	17.45
354.987	70.93
355.203	91.27
355.42	24.62
355.636	3.5
355.852	11.06
356.068	-3.28
356.284	-26.14
356.5	63.95
356.716	12.22
356.932	25.01
357.148	42.45
357.364	4.47
357.58	32.95
357.796	60.66
358.012	47.68
358.228	34.5
358.444	-27.3
358.66	78.29
358.876	42.45
359.092	-6.18
359.308	17.84
359.524	50.78
359.74	24.82
359.956	28.11
360.172	8.35
360.388	56.98
360.604	-3.47
360.819	80.23
361.035	29.27
361.251	57.17
361.467	-14.71
361.683	44.58
361.898	63.76
362.114	32.18
362.33	42.45
362.546	40.32
362.762	34.31
362.977	24.82
363.193	13.19
363.409	51.94
363.624	0.98
363.84	20.36
364.056	15.9
364.271	30.43
364.487	48.84
364.703	10.28
364.918	16.87
365.134	7.38
365.35	12.22
365.565	100.18
365.781	15.32
365.996	60.27
366.212	83.71
366.427	65.31
366.643	19.78
366.858	48.84
367.074	-5.22
367.289	60.66
367.505	140.87
367.72	4.08
367.936	41.87
368.151	71.51
368.367	53.3
368.582	16.1
368.798	20.17
369.013	86.43
369.228	45.93
369.444	37.41
369.659	79.45
369.874	53.1
370.09	87.98
370.305	-10.83
370.52	13.77
370.736	93.01
370.951	31.21
371.166	68.99
371.381	76.55
371.597	72.09
371.812	-16.65
372.027	-0.18
372.242	6.8
372.458	88.75
372.673	30.05
372.888	37.99
373.103	40.32
373.318	96.31
373.533	55.23
373.749	33.92
373.964	15.52
374.179	64.92
374.394	-9.67
374.609	76.55
374.824	-9.48
375.039	67.83
375.254	9.12
375.469	87.98
375.684	40.9
375.899	71.9
376.114	47.87
376.329	46.32
376.544	63.95
376.759	61.63
376.974	9.51
377.189	39.15
377.404	44.19
377.619	71.51
377.834	-3.86
378.049	39.93
378.264	17.65
378.478	44.77
378.693	35.47
378.908	29.08
379.123	25.01
379.338	90.88
379.553	31.4
379.767	47.29
379.982	61.63
380.197	78.1
380.412	54.46
380.626	72.48
380.841	99.41
381.056	60.47
381.271	89.72
381.485	10.28
381.7	13.19
381.915	41.87
382.129	17.07
382.344	47.68
382.559	26.75
382.773	99.21
382.988	-9.28
383.202	62.6
383.417	-3.28
383.632	133.9
383.846	39.15
384.061	55.43
384.275	45.35
384.49	57.56
384.704	69.57
384.919	52.13
385.133	80.42
385.348	57.75
385.562	34.12
385.777	93.21
385.991	51.75
386.206	11.64
386.42	37.22
386.634	92.43
386.849	64.53
387.063	98.44
387.277	37.22
387.492	32.57
387.706	24.43
387.92	13.77
388.135	84.68
388.349	55.62
388.563	64.53
388.778	95.53
388.992	70.35
389.206	79.26
389.42	133.9
389.635	63.76
389.849	85.65
390.063	110.65
390.277	78.1
390.491	109.68
390.706	85.85
390.92	93.4
391.134	79.26
391.348	99.6
391.562	29.27
391.776	43.03
391.99	26.95
392.205	82.75
392.419	23.27
392.633	41.28
392.847	108.32
393.061	41.28
393.275	129.83
393.489	43.8
393.703	56.2
393.917	80.23
394.131	34.12
394.345	60.85
394.559	124.21
394.773	73.25
394.986	99.6
395.2	53.1
395.414	99.21
395.628	57.17
395.842	75.77
396.056	71.12
396.27	39.73
396.484	92.43
396.697	87.4
396.911	97.66
397.125	63.18
397.339	105.8
397.553	78.68
397.766	133.51
397.98	109.48
398.194	114.13
398.408	49.03
398.621	100.38
398.835	121.69
399.049	71.32
399.262	133.9
399.476	133.31
399.69	129.05
399.903	174.97
400.117	79.45
400.331	113.75
400.544	83.52
400.758	199.77
400.971	102.31
401.185	132.93
401.398	92.63
401.612	145.52
401.826	164.12
402.039	157.15
402.253	91.08
402.466	135.06
402.68	124.98
402.893	133.51
403.106	114.33
403.32	87.78
403.533	130.8
403.747	126.92
403.96	142.03
404.174	141.84
404.387	83.33
404.6	132.93
404.814	148.43
405.027	118.01
405.24	87.2
405.454	93.21
405.667	159.47
405.88	70.35
406.094	135.06
406.307	160.25
406.52	117.23
406.733	76.93
406.947	73.83
407.16	182.14
407.373	176.71
407.586	109.1
407.799	90.11
408.012	160.05
408.226	122.85
408.439	195.51
408.652	79.07
408.865	159.47
409.078	181.94
409.291	164.12
409.504	127.5
409.717	172.26
409.93	151.14
410.143	142.03
410.357	73.25
410.57	98.25
410.783	112
410.996	127.89
411.209	158.89
411.421	173.23
411.634	133.7
411.847	119.95
412.06	160.25
412.273	154.24
412.486	159.47
412.699	218.18
412.912	124.6
413.125	164.7
413.338	161.6
413.55	165.67
413.763	165.48
413.976	155.98
414.189	113.75
414.402	137.19
414.615	200.54
414.827	117.23
415.04	156.37
415.253	168.38
415.466	195.51
415.678	223.21
415.891	150.17
416.104	133.31
416.316	135.64
416.529	156.76
416.742	197.44
416.954	184.46
417.167	125.95
417.38	157.15
417.592	200.16
417.805	129.25
418.017	123.24
418.23	201.51
418.442	156.18
418.655	160.63
418.868	180.59
419.08	207.71
419.293	193.38
419.505	191.05
419.718	193.96
419.93	188.34
420.142	166.64
420.355	224.18
420.567	177.49
420.78	195.89
420.992	179.04
421.205	232.13
421.417	143.2
421.629	176.33
421.842	158.31
422.054	129.05
422.266	189.31
422.479	214.49
422.691	141.26
422.903	216.04
423.115	157.15
423.328	188.53
423.54	185.63
423.752	199.96
423.964	142.81
424.177	190.28
424.389	187.76
424.601	280.17
424.813	195.31
425.025	210.81
425.238	229.8
425.45	186.21
425.662	171.09
425.874	464.62
426.086	193.38
426.298	198.03
426.51	226.12
426.722	183.88
426.934	174.97
427.146	215.08
427.358	184.66
427.57	196.86
427.782	184.85
427.994	199.96
428.206	174.58
428.418	164.51
428.63	203.45
428.842	227.09
429.054	231.16
429.266	232.71
429.478	172.06
429.69	198.22
429.902	148.43
430.114	207.52
430.325	188.14
430.537	157.34
430.749	175.36
430.961	116.85
431.173	157.15
431.384	196.67
431.596	114.52
431.808	171.09
432.02	223.99
432.231	209.84
432.443	248.01
432.655	209.84
432.867	184.27
433.078	229.61
433.29	299.16
433.502	231.93
433.713	277.07
433.925	246.27
434.136	268.16
434.348	203.45
434.56	180.78
434.771	323.38
434.983	170.51
435.194	224.76
435.406	223.6
435.617	273.59
435.829	299.74
436.04	279.4
436.252	257.7
436.463	299.94
436.675	277.27
436.886	264.29
437.098	258.67
437.309	321.06
437.521	267.77
437.732	275.72
437.943	249.37
438.155	259.25
438.366	226.89
438.578	314.08
438.789	266.42
439	262.35
439.211	260.02
439.423	283.86
439.634	293.74
439.845	270.68
440.057	300.52
440.268	287.15
440.479	271.84
440.69	303.42
440.902	277.85
441.113	256.34
441.324	255.96
441.535	296.06
441.746	331.13
441.957	282.89
442.168	286.76
442.38	298
442.591	301.49
442.802	271.65
443.013	282.5
443.224	315.44
443.435	288.89
443.646	293.54
443.857	302.07
444.068	288.7
444.279	284.05
444.49	384.22
444.701	318.92
444.912	403.4
445.123	373.17
445.334	358.64
445.545	313.11
445.756	321.25
445.967	317.18
446.178	327.84
446.388	359.61
446.599	318.34
446.81	316.99
447.021	309.04
447.232	332.1
447.443	373.95
447.653	299.16
447.864	359.22
448.075	345.08
448.286	359.03
448.496	343.53
448.707	366
448.918	336.94
449.129	423.94
449.339	317.37
449.55	354.57
449.761	337.33
449.971	386.93
450.182	346.44
450.393	390.61
450.603	330.55
450.814	373.56
451.024	391
451.235	426.65
451.446	414.25
451.656	420.64
451.867	350.12
452.077	394.87
452.288	414.44
452.498	422
452.709	379.95
452.919	390.8
453.13	351.28
453.34	374.34
453.55	306.14
453.761	389.25
453.971	379.95
454.182	385.38
454.392	397.39
454.602	429.17
454.813	408.44
455.023	389.64
455.233	358.25
455.444	389.84
455.654	330.16
455.864	391.39
456.075	402.62
456.285	359.8
456.495	386.54
456.705	397.97
456.916	425.1
457.126	452.42
457.336	408.24
457.546	339.46
457.756	385.38
457.967	424.13
458.177	370.65
458.387	426.65
458.597	350.12
458.807	395.84
459.017	358.06
459.227	382.09
459.437	377.63
459.647	461.52
459.857	446.02
460.068	388.29
460.278	438.85
460.488	422.19
460.698	463.85
460.908	422.58
461.117	366.78
461.327	416.57
461.537	419.09
461.747	438.66
461.957	396.62
462.167	517.71
462.377	446.02
462.587	437.11
462.797	466.37
463.007	432.27
463.216	461.52
463.426	468.88
463.636	436.72
463.846	400.1
464.056	396.81
464.265	479.35
464.475	423.94
464.685	462.49
464.895	456.68
465.104	412.89
465.314	450.67
465.524	418.9
465.733	415.02
465.943	497.56
466.153	511.9
466.362	479.15
466.572	462.88
466.782	449.32
466.991	439.05
467.201	486.52
467.41	408.24
467.62	472.95
467.829	429.75
468.039	488.84
468.249	470.63
468.458	470.63
468.668	515.38
468.877	472.76
469.086	548.9
469.296	518.68
469.505	469.85
469.715	540.38
469.924	510.54
470.134	564.4
470.343	529.53
470.552	469.27
470.762	482.83
470.971	460.55
471.18	509.77
471.39	495.04
471.599	477.22
471.808	521.58
472.018	503.37
472.227	554.33
472.436	564.4
472.645	548.71
472.855	517.71
473.064	557.04
473.273	523.33
473.482	543.86
473.691	602.57
473.901	571.76
474.11	531.85
474.319	627.37
474.528	558.78
474.737	617.68
474.946	597.15
475.155	562.85
475.364	620.2
475.573	555.68
475.783	591.53
475.992	607.03
476.201	619.62
476.41	598.5
476.619	583.78
476.828	584.75
477.037	570.6
477.245	613.42
477.454	648.49
477.663	632.02
477.872	620.2
478.081	674.06
478.29	601.99
478.499	700.61
478.708	664.57
478.917	697.51
479.125	639.96
479.334	645.39
479.543	616.52
479.752	678.71
479.961	669.41
480.169	674.26
480.378	666.89
480.587	788.18
480.796	714.56
481.004	695.57
481.213	735.09
481.422	720.37
481.63	705.26
481.839	747.69
482.048	741.49
482.256	727.92
482.465	734.9
482.674	739.74
482.882	754.27
483.091	830.22
483.299	760.86
483.508	786.44
483.716	733.74
483.925	785.27
484.134	736.26
484.342	730.44
484.551	787.02
484.759	769.58
484.967	805.81
485.176	807.75
485.384	797.87
485.593	813.75
485.801	779.27
486.01	779.27
486.218	717.66
486.426	666.7
486.635	693.82
486.843	688.79
487.051	740.13
487.26	716.3
487.468	741.29
487.676	777.33
487.885	769.39
488.093	782.37
488.301	847.08
488.509	807.17
488.717	827.9
488.926	828.67
489.134	810.07
489.342	843.98
489.55	777.52
489.758	835.65
489.967	834.68
490.175	936.4
490.383	860.06
490.591	941.63
490.799	843.98
491.007	915.08
491.215	886.8
491.423	889.12
491.631	898.81
491.839	846.69
492.047	903.07
492.255	847.08
492.463	843.59
492.671	859.48
492.879	880.4
493.087	891.06
493.295	941.43
493.503	905.4
493.711	950.35
493.919	953.45
494.127	962.55
494.334	964.49
494.542	900.55
494.75	936.2
494.958	956.74
495.166	996.65
495.374	975.53
495.581	957.9
495.789	945.31
495.997	1005.76
496.205	960.23
496.412	914.31
496.62	958.29
496.828	983.67
497.035	950.93
497.243	1020.1
497.451	971.46
497.658	991.81
497.866	991.42
498.074	1046.44
498.281	910.24
498.489	1046.64
498.696	951.9
498.904	932.91
499.112	958.1
499.319	1048.58
499.527	972.63
499.734	1037.34
499.942	956.16
500.149	954.41
500.357	991.81
500.564	962.55
500.771	986.58
500.979	949.38
501.186	955.38
501.394	975.15
501.601	952.28
501.808	998.4
502.016	979.02
502.223	982.9
502.43	1012.15
502.638	1006.53
502.845	976.31
503.052	1045.28
503.26	963.71
503.467	1065.82
503.674	1020.1
503.881	1022.81
504.089	1075.51
504.296	1046.83
504.503	949.96
504.71	988.51
504.917	998.01
505.125	1042.96
505.332	998.2
505.539	1053.03
505.746	1105.73
505.953	1082.09
506.16	1070.47
506.367	1150.49
506.574	1146.61
506.781	1129.17
506.988	1080.16
507.195	1093.14
507.402	1064.46
507.609	1083.64
507.816	1035.6
508.023	1045.09
508.23	1039.28
508.437	1022.42
508.644	1070.66
508.851	1117.94
509.058	1111.74
509.265	1088.29
509.472	1120.65
509.679	1207.84
509.885	1121.43
510.092	1082.68
510.299	1112.9
510.506	1120.07
510.713	1102.44
510.92	1087.91
511.126	1127.82
511.333	1166.96
511.54	1164.24
511.746	1176.45
511.953	1189.62
512.16	1208.61
512.367	1137.51
512.573	1111.35
512.78	1123.94
512.987	1141.96
513.193	1156.3
513.4	1056.33
513.606	1124.72
513.813	1148.74
514.02	1129.95
514.226	1207.84
514.433	1182.46
514.639	1116
514.846	1142.74
515.052	1138.67
515.259	1173.74
515.465	1178.97
515.672	1171.8
515.878	1197.96
516.085	1168.31
516.291	1216.17
516.497	1166.96
516.704	1137.12
516.91	1067.76
517.117	1060.98
517.323	1035.6
517.529	1079.77
517.736	1059.04
517.942	1094.11
518.148	1091.39
518.354	1105.73
518.561	1116.78
518.767	1134.41
518.973	1126.46
519.179	1171.8
519.386	1148.16
519.592	1150.49
519.798	1139.25
520.004	1247.55
520.21	1192.92
520.417	1211.52
520.623	1241.74
520.829	1287.08
521.035	1260.15
521.241	1285.92
521.447	1278.36
521.653	1380.08
521.859	1277.59
522.065	1308.58
522.271	1343.46
522.477	1335.32
522.683	1355.47
522.889	1316.14
523.095	1297.54
523.301	1310.13
523.507	1287.85
523.713	1311.3
523.919	1294.44
524.125	1374.07
524.331	1345.78
524.537	1411.85
524.742	1397.9
524.948	1390.93
525.154	1429.1
525.36	1483.34
525.566	1377.75
525.772	1475.21
525.977	1385.89
526.183	1392.09
526.389	1417.28
526.595	1359.73
526.8	1358.77
527.006	1306.65
527.212	1316.72
527.417	1261.89
527.623	1264.99
527.829	1375.23
528.034	1360.51
528.24	1375.82
528.446	1342.1
528.651	1471.53
528.857	1460.1
529.062	1497.29
529.268	1461.06
529.473	1508.73
529.679	1480.83
529.884	1557.16
530.09	1517.83
530.295	1501.56
530.501	1518.03
530.706	1509.69
530.912	1528.1
531.117	1500.2
531.323	1522.09
531.528	1592.42
531.733	1529.84
531.939	1536.82
532.144	1542.44
532.35	1567.82
532.555	1574.6
532.76	1564.33
532.966	1548.25
533.171	1515.7
533.376	1517.64
533.581	1498.65
533.787	1522.48
533.992	1524.23
534.197	1580.8
534.402	1568.59
534.607	1545.54
534.813	1629.62
535.018	1574.41
535.223	1559.68
535.428	1583.51
535.633	1638.73
535.838	1635.63
536.043	1634.08
536.249	1695.89
536.454	1635.63
536.659	1646.87
536.864	1598.43
537.069	1596.69
537.274	1649.39
537.479	1636.99
537.684	1622.46
537.889	1580.8
538.094	1715.07
538.299	1639.7
538.504	1664.3
538.708	1679.8
538.913	1690.27
539.118	1642.61
539.323	1654.23
539.528	1627.11
539.733	1645.12
539.938	1640.67
540.142	1662.37
540.347	1644.16
540.552	1641.25
540.757	1604.05
540.962	1615.09
541.166	1612.77
541.371	1615.67
541.576	1649
541.781	1569.17
541.985	1635.05
542.19	1649.39
542.395	1735.99
542.599	1721.07
542.804	1731.15
543.008	1742.38
543.213	1667.79
543.418	1637.76
543.622	1714.68
543.827	1663.92
544.031	1717.78
544.236	1767.96
544.44	1737.54
544.645	1785.98
544.849	1698.21
545.054	1744.71
545.258	1818.72
545.463	1773.58
545.667	1692.4
545.872	1727.85
546.076	1749.36
546.281	1755.17
546.485	1699.18
546.689	1754.98
546.894	1800.9
547.098	1756.92
547.302	1719.33
547.507	1718.36
547.711	1727.66
547.915	1816.2
548.119	1711
548.324	1746.07
548.528	1776.87
548.732	1736.19
548.936	1770.09
549.141	1768.15
549.345	1729.02
549.549	1714.49
549.753	1803.22
549.957	1819.5
550.161	1840.61
550.366	1776.1
550.57	1755.95
550.774	1780.17
550.978	1785.98
551.182	1795.86
551.386	1741.42
551.59	1758.47
551.794	1769.7
551.998	1792.57
552.202	1806.71
552.406	1715.07
552.61	1808.07
552.814	1789.27
553.018	1816.78
553.222	1804.19
553.426	1782.49
553.63	1844.68
553.833	1781.91
554.037	1747.42
554.241	1839.65
554.445	1807.1
554.649	1762.53
554.853	1772.8
555.056	1824.73
555.26	1866.96
555.464	1828.8
555.668	1796.44
555.871	1815.04
556.075	1812.72
556.279	1774.55
556.483	1751.49
556.686	1742.38
556.89	1765.05
557.094	1769.7
557.297	1708.48
557.501	1770.28
557.704	1682.13
557.908	1795.47
558.112	1736.77
558.315	1806.71
558.519	1742
558.722	1732.12
558.926	1732.5
559.129	1662.75
559.333	1646.29
559.536	1677.29
559.74	1651.71
559.943	1659.07
560.147	1663.14
560.35	1654.62
560.553	1668.76
560.757	1658.3
560.96	1751.1
561.164	1673.02
561.367	1722.24
561.57	1672.83
561.774	1704.02
561.977	1676.51
562.18	1652.68
562.384	1779.58
562.587	1687.75
562.79	1658.69
562.993	1671.28
563.197	1687.17
563.4	1743.55
563.603	1729.99
563.806	1731.15
564.009	1658.69
564.212	1690.07
564.416	1639.12
564.619	1670.31
564.822	1611.8
565.025	1713.9
565.228	1643.19
565.431	1661.98
565.634	1556.58
565.837	1584.09
566.04	1610.06
566.243	1582.54
566.446	1517.83
566.649	1620.91
566.852	1544.57
567.055	1598.43
567.258	1590.87
567.461	1627.3
567.664	1630.01
567.867	1552.32
568.07	1584.29
568.273	1587.77
568.475	1633.69
568.678	1548.06
568.881	1552.9
569.084	1553.09
569.287	1446.92
569.489	1489.16
569.692	1554.64
569.895	1578.09
570.098	1469.78
570.3	1463.39
570.503	1409.72
570.706	1429.48
570.909	1436.85
571.111	1432.2
571.314	1395.38
571.516	1414.37
571.719	1436.65
571.922	1409.14
572.124	1398.68
572.327	1469.98
572.529	1403.52
572.732	1406.23
572.935	1445.76
573.137	1474.24
573.34	1419.8
573.542	1474.05
573.745	1464.36
573.947	1434.33
574.15	1428.32
574.352	1390.93
574.554	1519.77
574.757	1401.39
574.959	1395.96
575.162	1389.57
575.364	1370
575.566	1461.65
575.769	1341.52
575.971	1401.2
576.173	1332.8
576.376	1373.49
576.578	1377.37
576.78	1417.47
576.982	1313.82
577.185	1380.85
577.387	1315.75
577.589	1318.47
577.791	1394.22
577.993	1373.3
578.196	1340.17
578.398	1372.33
578.6	1387.63
578.802	1295.99
579.004	1292.89
579.206	1272.35
579.408	1368.65
579.61	1336.1
579.812	1341.91
580.014	1311.49
580.216	1327.96
580.418	1331.25
580.62	1319.63
580.822	1331.25
581.024	1348.3
581.226	1366.52
581.428	1341.52
581.63	1413.98
581.832	1345.2
582.034	1393.83
582.236	1354.5
582.438	1365.35
582.64	1411.66
582.841	1407.59
583.043	1445.76
583.245	1386.86
583.447	1376.01
583.649	1353.73
583.85	1367.29
584.052	1407.59
584.254	1354.5
584.456	1413.01
584.657	1334.55
584.859	1385.5
585.061	1344.62
585.262	1364.97
585.464	1333
585.666	1372.13
585.867	1337.07
586.069	1412.63
586.27	1319.43
586.472	1362.83
586.674	1308
586.875	1324.08
587.077	1318.27
587.278	1340.75
587.48	1342.49
587.681	1438.4
587.883	1301.03
588.084	1262.67
588.285	1328.93
588.487	1303.74
588.688	1271.77
588.89	1219.46
589.091	1200.28
589.292	1225.27
589.494	1172.38
589.695	1187.11
589.896	1077.83
590.098	1102.83
590.299	1140.8
590.5	1146.03
590.702	1169.86
590.903	1196.02
591.104	1257.82
591.305	1197.37
591.507	1291.15
591.708	1246.39
591.909	1231.67
592.11	1317.11
592.311	1244.84
592.512	1230.7
592.714	1188.66
592.915	1212.49
593.116	1214.23
593.317	1251.43
593.518	1203.96
593.719	1233.02
593.92	1248.33
594.121	1268.67
594.322	1231.28
594.523	1217.33
594.724	1189.82
594.925	1227.99
595.126	1202.8
595.327	1245.62
595.528	1238.64
595.729	1200.86
595.929	1224.69
596.13	1222.75
596.331	1222.37
596.532	1234.19
596.733	1307.42
596.934	1298.7
597.135	1249.1
597.335	1258.4
597.536	1190.21
597.737	1270.61
597.938	1211.32
598.138	1232.05
598.339	1200.09
598.54	1245.04
598.74	1217.72
598.941	1241.55
599.142	1304.13
599.342	1251.04
599.543	1200.28
599.744	1215.2
599.944	1233.99
600.145	1215.2
600.345	1236.51
600.546	1292.7
600.746	1256.08
600.947	1285.92
601.147	1234.38
601.348	1309.36
601.548	1196.02
601.749	1219.65
601.949	1211.71
602.15	1208.81
602.35	1205.32
602.551	1258.99
602.751	1206.29
602.951	1265.96
603.152	1143.12
603.352	1245.42
603.552	1232.83
603.753	1293.09
603.953	1221.2
604.153	1232.44
604.354	1234.19
604.554	1221.2
604.754	1241.16
604.954	1201.83
605.155	1230.12
605.355	1199.12
605.555	1260.34
605.755	1304.52
605.955	1176.84
606.155	1252.4
606.356	1221.4
606.556	1243.87
606.756	1236.51
606.956	1182.65
607.156	1253.37
607.356	1195.63
607.556	1224.11
607.756	1222.95
607.956	1264.99
608.156	1190.4
608.356	1196.02
608.556	1234.57
608.756	1202.8
608.956	1153.97
609.156	1223.92
609.356	1149.91
609.556	1159.01
609.755	1187.11
609.955	1161.34
610.155	1194.66
610.355	1197.18
610.555	1154.56
610.755	1202.61
610.954	1142.74
611.154	1189.24
611.354	1212.1
611.554	1157.66
611.753	1172.38
611.953	1143.51
612.153	1219.65
612.352	1171.02
612.552	1143.9
612.752	1089.07
612.951	1138.28
613.151	1144.29
613.351	1142.93
613.55	1134.41
613.75	1156.49
613.949	1127.63
614.149	1138.47
614.348	1131.31
614.548	1127.24
614.747	1046.64
614.947	1091.39
615.146	1087.13
615.346	1133.63
615.545	1120.46
615.745	1165.02
615.944	1144.87
616.144	1142.93
616.343	1127.63
616.542	1111.74
616.742	1097.21
616.941	1125.69
617.14	1051.68
617.34	1113.48
617.539	1097.01
617.738	1037.34
617.938	1150.49
618.137	1096.82
618.336	1066.21
618.535	1132.08
618.734	1091.98
618.934	1072.99
619.133	1113.68
619.332	1123.75
619.531	1081.71
619.73	1102.63
619.929	1118.33
620.128	1129.17
620.328	1173.74
620.527	1076.09
620.726	1096.43
620.925	1144.48
621.124	1089.65
621.323	1099.73
621.522	1043.93
621.721	1064.46
621.92	1066.4
622.119	1105.93
622.318	1075.89
622.517	1053.03
622.715	1064.27
622.914	1026.3
623.113	1066.21
623.312	1045.28
623.511	1067.37
623.71	1048.96
623.909	989.87
624.107	1124.33
624.306	999.36
624.505	1018.93
624.704	1049.16
624.902	1034.24
625.101	1075.89
625.3	1069.31
625.499	991.23
625.697	1026.68
625.896	1015.45
626.095	1018.74
626.293	971.85
626.492	993.16
626.69	1010.8
626.889	1028.62
627.088	1050.71
627.286	978.05
627.485	979.6
627.683	959.06
627.882	994.33
628.08	916.25
628.279	968.75
628.477	993.16
628.676	945.12
628.874	997.81
629.073	959.45
629.271	941.63
629.469	990.84
629.668	957.51
629.866	954.41
630.065	931.55
630.263	969.14
630.461	945.5
630.66	982.51
630.858	965.85
631.056	1027.85
631.254	1002.27
631.453	948.41
631.651	974.76
631.849	967.4
632.047	965.07
632.245	953.25
632.444	961.58
632.642	981.93
632.84	1003.24
633.038	947.63
633.236	941.24
633.434	968.36
633.632	926.52
633.83	947.83
634.028	995.88
634.227	980.76
634.425	1047.41
634.623	982.31
634.821	989.29
635.019	1006.92
635.216	968.17
635.414	1004.21
635.612	992.39
635.81	962.55
636.008	1043.54
636.206	963.71
636.404	1016.8
636.602	951.12
636.8	998.2
636.997	1010.8
637.195	1008.28
637.393	1010.21
637.591	1031.91
637.789	1004.4
637.986	989.1
638.184	977.66
638.382	1042.38
638.58	1002.85
638.777	1038.11
638.975	997.43
639.173	994.71
639.37	1004.6
639.568	995.68
639.765	1013.51
639.963	990.26
640.161	1017.77
640.358	998.01
640.556	956.35
640.753	935.82
640.951	935.62
641.148	981.15
641.346	970.88
641.543	960.42
641.741	967.2
641.938	933.3
642.136	941.63
642.333	927.87
642.531	1003.63
642.728	1003.24
642.925	976.7
643.123	964.49
643.32	979.6
643.517	975.73
643.715	942.6
643.912	945.7
644.109	985.22
644.306	978.44
644.504	943.18
644.701	960.61
644.898	987.55
645.095	942.6
645.293	964.49
645.49	973.01
645.687	965.46
645.884	940.47
646.081	867.23
646.278	950.54
646.475	907.72
646.672	903.85
646.87	939.88
647.067	928.45
647.264	898.62
647.461	871.88
647.658	850.95
647.855	916.25
648.052	874.01
648.249	839.14
648.446	864.32
648.642	872.85
648.839	832.94
649.036	855.8
649.233	830.22
649.43	846.11
649.627	819.18
649.824	825.57
650.021	833.9
650.217	814.53
650.414	822.67
650.611	848.82
650.808	896.87
651.004	889.12
651.201	901.52
651.398	918.18
651.595	868.97
651.791	845.72
651.988	887.77
652.185	835.65
652.381	895.71
652.578	827.51
652.775	878.85
652.971	835.45
653.168	838.94
653.364	895.9
653.561	805.23
653.757	824.22
653.954	871.3
654.15	809.88
654.347	906.56
654.543	863.74
654.74	791.86
654.936	815.11
655.133	827.9
655.329	821.7
655.525	831.19
655.722	866.07
655.918	793.22
656.115	825.38
656.311	756.99
656.507	673.09
656.704	666.12
656.9	739.16
657.096	732.57
657.292	726.37
657.489	772.49
657.685	781.98
657.881	753.69
658.077	771.91
658.273	798.06
658.47	854.05
658.666	811.24
658.862	835.65
659.058	800
659.254	847.47
659.45	777.52
659.646	830.42
659.842	796.51
660.038	861.22
660.234	777.91
660.43	843.59
660.626	866.65
660.822	849.02
661.018	848.63
661.214	833.13
661.41	795.74
661.606	841.07
661.802	844.37
661.998	825.57
662.194	805.04
662.39	839.14
662.586	840.69
662.781	827.32
662.977	852.31
663.173	836.23
663.369	820.54
663.564	825.19
663.76	823.83
663.956	802.32
664.152	841.07
664.347	781.2
664.543	791.09
664.739	787.21
664.934	741.29
665.13	733.35
665.326	851.73
665.521	803.49
665.717	758.15
665.912	772.87
666.108	710.29
666.304	755.24
666.499	788.57
666.695	723.66
666.89	801.35
667.086	844.56
667.281	812.2
667.477	841.85
667.672	806.2
667.867	800.97
668.063	815.69
668.258	768.81
668.454	799.8
668.649	840.49
668.844	788.95
669.04	812.2
669.235	750.98
669.43	765.32
669.626	775.97
669.821	768.61
670.016	753.31
670.211	772.1
670.407	729.47
670.602	776.36
670.797	748.07
670.992	810.46
671.187	729.67
671.382	789.54
671.578	749.62
671.773	786.44
671.968	721.53
672.163	754.86
672.358	752.34
672.553	739.55
672.748	743.23
672.943	827.7
673.138	732.77
673.333	815.69
673.528	756.41
673.723	771.91
673.918	736.06
674.113	689.56
674.308	817.63
674.503	785.85
674.698	783.92
674.892	752.34
675.087	766.48
675.282	759.51
675.477	736.84
675.672	782.37
675.867	722.69
676.061	733.35
676.256	707.39
676.451	743.81
676.646	765.71
676.84	703.51
677.035	716.11
677.23	720.95
677.424	746.91
677.619	768.81
677.814	781.98
678.008	775.39
678.203	687.63
678.397	708.94
678.592	731.61
678.787	750.01
678.981	725.6
679.176	775.2
679.37	744.01
679.565	703.71
679.759	757.96
679.954	751.76
680.148	777.33
680.342	793.6
680.537	746.52
680.731	696.92
680.926	756.6
681.12	765.32
681.314	678.71
681.509	731.41
681.703	749.82
681.897	734.32
682.092	738
682.286	677.16
682.48	785.66
682.674	765.12
682.869	728.51
683.063	735.48
683.257	797.87
683.451	703.12
683.645	752.34
683.839	735.29
684.034	714.75
684.228	753.69
684.422	686.27
684.616	696.34
684.81	735.67
685.004	722.5
685.198	729.86
685.392	751.17
685.586	735.09
685.78	709.52
685.974	738.58
686.168	733.74
686.362	752.14
686.556	662.05
686.75	629.11
686.944	623.88
687.138	641.51
687.331	536.89
687.525	552.39
687.719	510.15
687.913	554.71
688.107	544.25
688.301	541.73
688.494	587.65
688.688	536.11
688.882	517.51
689.076	520.23
689.269	528.36
689.463	599.66
689.657	565.76
689.85	573.31
690.044	572.93
690.238	588.43
690.431	566.73
690.625	594.82
690.818	619.43
691.012	608.77
691.205	630.08
691.399	572.35
691.593	626.21
691.786	671.74
691.98	664.57
692.173	693.24
692.366	657.98
692.56	682.98
692.753	735.87
692.947	656.04
693.14	736.06
693.333	698.67
693.527	656.82
693.72	711.07
693.914	702.74
694.107	681.62
694.3	699.83
694.493	650.43
694.687	731.61
694.88	675.23
695.073	754.86
695.266	741.49
695.46	694.02
695.653	762.02
695.846	762.61
696.039	702.74
696.232	736.26
696.425	805.23
696.618	786.82
696.812	807.36
697.005	830.8
697.198	909.08
697.391	827.32
697.584	880.79
697.777	892.42
697.97	843.4
698.163	874.01
698.356	878.08
698.549	952.48
698.742	893.58
698.935	856.38
699.127	884.47
699.32	872.07
699.513	913.15
699.706	899.2
699.899	920.51
700.092	898.42
700.285	927.87
700.477	849.6
700.67	943.57
700.863	955.58
701.056	1027.07
701.248	1002.08
701.441	982.9
701.634	944.15
701.826	1060.59
702.019	944.34
702.212	1043.34
702.404	971.27
702.597	983.86
702.79	1031.33
702.982	1005.76
703.175	1040.05
703.367	1082.09
703.56	1069.31
703.752	1165.02
703.945	1121.81
704.137	1129.56
704.33	1172.96
704.522	1136.54
704.715	1174.51
704.907	1159.98
705.1	1208.81
705.292	1229.92
705.484	1186.91
705.677	1230.89
705.869	1240.39
706.061	1271
706.254	1298.32
706.446	1252.79
706.638	1265.38
706.831	1335.71
707.023	1310.13
707.215	1407.4
707.407	1382.6
707.599	1345.78
707.792	1421.73
707.984	1388.22
708.176	1449.05
708.368	1402.16
708.56	1468.81
708.752	1426
708.944	1424.83
709.136	1461.06
709.329	1428.13
709.521	1584.09
709.713	1562.98
709.905	1542.63
710.097	1574.41
710.289	1501.17
710.481	1528.29
710.672	1572.47
710.864	1590.49
711.056	1624.97
711.248	1638.34
711.44	1634.27
711.632	1631.37
711.824	1664.69
712.016	1710.03
712.207	1702.86
712.399	1681.16
712.591	1746.65
712.783	1726.69
712.975	1750.13
713.166	1708.29
713.358	1742.97
713.55	1818.72
713.741	1764.28
713.933	1800.7
714.125	1788.11
714.316	1783.27
714.508	1863.67
714.7	1844.49
714.891	1844.1
715.083	1882.27
715.274	1846.23
715.466	1888.28
715.657	1912.3
715.849	1842.75
716.04	1878.59
716.232	1800.12
716.423	1888.86
716.615	1803.61
716.806	1776.87
716.998	1751.68
717.189	1715.45
717.381	1601.92
717.572	1574.79
717.763	1641.06
717.955	1640.09
718.146	1599.98
718.337	1515.51
718.528	1503.88
718.72	1450.99
718.911	1545.93
719.102	1438.01
719.293	1522.48
719.485	1514.15
719.676	1489.93
719.867	1448.28
720.058	1469.78
720.249	1475.98
720.44	1496.33
720.632	1558.91
720.823	1598.62
721.014	1723.59
721.205	1738.7
721.396	1778.42
721.587	1885.76
721.778	1904.36
721.969	1929.35
722.16	2017.12
722.351	2044.05
722.542	2125.81
722.733	2118.25
722.924	2049.67
723.115	2109.34
723.305	2094.42
723.496	2105.85
723.687	1986.7
723.878	1994.84
724.069	2024.09
724.26	2039.21
724.45	1943.69
724.641	1949.5
724.832	2000.26
725.023	1951.63
725.213	1979.14
725.404	1959.19
725.595	1985.54
725.785	1962.48
725.976	2030.29
726.167	2002.01
726.357	2027.77
726.548	2142.67
726.739	2073.5
726.929	2159.91
727.12	2149.64
727.31	2150.8
727.501	2095
727.691	2108.37
727.882	2142.67
728.072	2184.32
728.263	2207.96
728.453	2239.93
728.644	2261.05
728.834	2235.67
729.024	2235.28
729.215	2213.19
729.405	2217.45
729.596	2329.25
729.786	2320.91
729.976	2378.07
730.167	2329.44
730.357	2307.35
730.547	2322.08
730.737	2332.35
730.928	2415.85
731.118	2451.31
731.308	2371.48
731.498	2442.59
731.688	2500.32
731.879	2510.79
732.069	2574.53
732.259	2580.92
732.449	2652.8
732.639	2706.28
732.829	2718.29
733.019	2771.57
733.209	2850.43
733.399	2852.17
733.589	2917.85
733.779	2980.82
733.969	2941.49
734.159	2991.67
734.349	3049.4
734.539	3101.91
734.729	3122.25
734.919	3112.18
735.109	3158.87
735.299	3119.54
735.488	3168.17
735.678	3163.91
735.868	3137.37
736.058	3136.98
736.248	3164.49
736.437	3113.92
736.627	3135.43
736.817	3243.34
737.007	3208.28
737.196	3251.68
737.386	3235.98
737.576	3235.01
737.765	3286.16
737.955	3266.79
738.144	3334.99
738.334	3324.91
738.524	3291.01
738.713	3300.31
738.903	3330.14
739.092	3356.11
739.282	3344.48
739.471	3359.21
739.661	3364.82
739.85	3386.72
740.04	3433.6
740.229	3466.35
740.419	3439.61
740.608	3503.93
740.797	3473.13
740.987	3526.8
741.176	3512.85
741.365	3497.93
741.555	3415.39
741.744	3541.33
741.933	3518.08
742.123	3558.96
742.312	3564.58
742.501	3574.65
742.69	3631.42
742.88	3539.58
743.069	3627.16
743.258	3603.71
743.447	3685.48
743.636	3661.45
743.825	3604.3
744.014	3665.71
744.204	3662.23
744.393	3607.2
744.582	3708.14
744.771	3753.87
744.96	3636.46
745.149	3726.94
745.338	3632.39
745.527	3704.46
745.716	3739.14
745.905	3660.48
746.094	3702.91
746.283	3741.86
746.471	3740.89
746.66	3762.59
746.849	3775.37
747.038	3758.52
747.227	3693.81
747.416	3807.34
747.604	3752.71
747.793	3715.89
747.982	3778.28
748.171	3755.61
748.359	3777.31
748.548	3745.73
748.737	3784.09
748.926	3748.06
749.114	3636.46
749.303	3762.39
749.491	3733.72
749.68	3620.96
749.869	3782.16
750.057	3703.49
750.246	3763.36
750.434	3699.43
750.623	3707.37
750.811	3702.53
751	3753.48
751.188	3715.51
751.377	3663.97
751.565	3678.31
751.754	3674.24
751.942	3643.63
752.131	3712.6
752.319	3654.67
752.507	3637.23
752.696	3736.24
752.884	3694.97
753.072	3661.65
753.261	3683.54
753.449	3646.34
753.637	3630.45
753.825	3750.96
754.014	3698.65
754.202	3646.34
754.39	3720.54
754.578	3695.74
754.766	3663
754.955	3602.16
755.143	3736.04
755.331	3649.44
755.519	3662.03
755.707	3664.55
755.895	3619.41
756.083	3648.08
756.271	3610.88
756.459	3627.16
756.647	3671.33
756.835	3589.38
757.023	3582.4
757.211	3588.21
757.399	3561.48
757.587	3590.73
757.775	3524.47
757.963	3584.73
758.151	3567.68
758.339	3494.83
758.526	3476.81
758.714	3522.92
758.902	3400.67
759.09	3329.95
759.278	3082.53
759.465	2853.53
759.653	2441.81
759.841	2269.76
760.028	1936.91
760.216	1657.33
760.404	1554.45
760.591	1236.51
760.779	1071.05
760.967	924
761.154	773.26
761.342	783.72
761.529	798.64
761.717	882.15
761.905	864.71
762.092	902.88
762.28	872.85
762.467	858.51
762.655	784.5
762.842	798.06
763.029	840.1
763.217	838.94
763.404	793.41
763.592	857.15
763.779	811.82
763.966	844.17
764.154	939.88
764.341	972.82
764.528	974.95
764.716	1056.91
764.903	1134.99
765.09	1153.2
765.277	1228.57
765.465	1376.59
765.652	1452.15
765.839	1518.22
766.026	1683.68
766.213	1694.92
766.4	1793.34
766.588	2020.8
766.775	2057.42
766.962	2150.22
767.149	2220.55
767.336	2352.3
767.523	2364.12
767.71	2496.26
767.897	2635.37
768.084	2676.44
768.271	2676.25
768.458	2808.77
768.645	2877.36
768.832	2842.29
769.019	2878.52
769.206	2920.95
769.392	2972.1
769.579	3094.35
769.766	3052.5
769.953	3030.03
770.14	3090.48
770.327	3081.95
770.513	3127.48
770.7	3193.75
770.887	3114.5
771.073	3152.28
771.26	3124.19
771.447	3112.37
771.634	3111.6
771.82	3231.91
772.007	3125.74
772.193	3175.53
772.38	3182.7
772.567	3174.18
772.753	3140.08
772.94	3217.58
773.126	3208.08
773.313	3224.16
773.499	3157.71
773.686	3213.12
773.872	3189.68
774.059	3181.93
774.245	3136.78
774.432	3159.26
774.618	3074.59
774.804	3148.21
774.991	3116.63
775.177	3176.7
775.363	3114.5
775.55	3168.36
775.736	3048.05
775.922	3086.02
776.109	3109.47
776.295	3130.58
776.481	3153.83
776.667	3123.61
776.853	3076.92
777.04	3060.45
777.226	3075.37
777.412	3128.65
777.598	3067.23
777.784	3060.06
777.97	3015.89
778.156	3083.12
778.342	3062.77
778.528	3060.25
778.715	2992.25
778.901	3021.89
779.087	3054.63
779.272	3002.13
779.458	2997.67
779.644	3021.89
779.83	2982.95
780.016	3077.69
780.202	2990.31
780.388	3018.6
780.574	2934.12
780.76	2952.14
780.946	3011.43
781.131	2984.5
781.317	2967.25
781.503	2942.46
781.689	2906.42
781.874	3030.42
782.06	2919.4
782.246	2944.97
782.432	2913.2
782.617	2940.13
782.803	3018.02
782.989	2893.24
783.174	2892.47
783.36	2812.64
783.545	2867.67
783.731	2911.07
783.916	2829.31
784.102	2846.74
784.288	2797.53
784.473	2858.56
784.659	2797.53
784.844	2885.88
785.029	2782.42
785.215	2811.68
785.4	2762.46
785.586	2819.43
785.771	2772.73
785.956	2805.48
786.142	2783.2
786.327	2760.33
786.512	2754.91
786.698	2755.3
786.883	2691.36
787.068	2746.38
787.254	2750.06
787.439	2712.09
787.624	2664.82
787.809	2690.39
787.994	2681.87
788.18	2708.6
788.365	2643.5
788.55	2642.15
788.735	2640.4
788.92	2641.95
789.105	2636.72
789.29	2658.03
789.475	2577.05
789.66	2597.2
789.845	2573.17
790.03	2559.03
790.215	2556.12
790.4	2614.44
790.585	2605.72
790.77	2578.4
790.955	2503.23
791.14	2507.88
791.325	2597.2
791.51	2488.7
791.695	2542.56
791.879	2539.27
792.064	2455.18
792.249	2580.73
792.434	2535.78
792.618	2548.37
792.803	2573.75
792.988	2541.59
793.173	2519.89
793.357	2542.56
793.542	2492.57
793.727	2581.89
793.911	2572.98
794.096	2572.79
794.281	2609.02
794.465	2645.63
794.65	2530.55
794.834	2580.54
795.019	2602.82
795.203	2627.81
795.388	2586.35
795.572	2667.33
795.757	2596.81
795.941	2625.87
796.126	2600.3
796.31	2522.8
796.494	2583.05
796.679	2564.65
796.863	2531.13
797.048	2629.17
797.232	2574.34
797.416	2600.3
797.601	2577.82
797.785	2655.13
797.969	2671.98
798.153	2592.74
798.338	2639.63
798.522	2660.36
798.706	2625.29
798.89	2617.73
799.074	2749.87
799.258	2657.84
799.443	2652.8
799.627	2654.16
799.811	2662.88
799.995	2605.92
800.179	2562.13
800.363	2560.19
800.547	2670.05
800.731	2635.75
800.915	2564.26
801.099	2546.63
801.283	2574.92
801.467	2612.7
801.651	2541.79
801.835	2614.25
802.019	2574.53
802.202	2644.08
802.386	2547.4
802.57	2544.69
802.754	2559.03
802.938	2529.77
803.121	2545.85
803.305	2576.08
803.489	2563.1
803.673	2614.05
803.856	2583.44
804.04	2566.78
804.224	2595.26
804.407	2541.98
804.591	2534.04
804.775	2561.74
804.958	2587.12
805.142	2662.68
805.326	2595.45
805.509	2578.02
805.693	2657.65
805.876	2621.61
806.06	2616.96
806.243	2629.17
806.427	2670.82
806.61	2681.48
806.794	2603.01
806.977	2646.02
807.16	2643.12
807.344	2628.78
807.527	2612.5
807.71	2599.33
807.894	2571.04
808.077	2596.42
808.26	2537.14
808.444	2563.68
808.627	2638.66
808.81	2557.29
808.993	2503.42
809.177	2498.58
809.36	2512.92
809.543	2534.42
809.726	2426.51
809.909	2414.69
810.092	2420.89
810.276	2434.84
810.459	2447.43
810.642	2421.28
810.825	2421.28
811.008	2391.63
811.191	2330.02
811.374	2312.39
811.557	2327.5
811.74	2384.66
811.923	2259.5
812.106	2242.64
812.289	2248.45
812.472	2207.57
812.654	2249.03
812.837	2200.6
813.02	2174.44
813.203	2131.82
813.386	2033.01
813.569	2026.61
813.751	1918.89
813.934	2003.94
814.117	1971.2
814.3	1896.61
814.482	1878.01
814.665	1806.52
814.848	1782.49
815.03	1775.52
815.213	1706.74
815.396	1707.7
815.578	1697.44
815.761	1698.4
815.943	1718.75
816.126	1635.24
816.309	1598.62
816.491	1532.94
816.674	1517.25
816.856	1535.46
817.039	1566.46
817.221	1639.31
817.403	1578.86
817.586	1590.1
817.768	1609.86
817.951	1517.83
818.133	1522.48
818.315	1583.51
818.498	1589.91
818.68	1610.06
818.862	1624.59
819.045	1646.67
819.227	1601.34
819.409	1606.18
819.591	1623.81
819.774	1607.54
819.956	1577.31
820.138	1640.09
820.32	1624.59
820.502	1709.84
820.684	1793.53
820.866	1774.35
821.048	1817.17
821.231	1818.92
821.413	1814.65
821.595	1818.53
821.777	1839.45
821.959	1794.7
822.141	1850.5
822.323	1673.6
822.505	1657.72
822.686	1633.69
822.868	1550.38
823.05	1414.18
823.232	1410.69
823.414	1327.38
823.596	1436.46
823.778	1426.77
823.96	1464.55
824.141	1457.77
824.323	1472.11
824.505	1544.57
824.687	1595.72
824.868	1656.36
825.05	1719.33
825.232	1780.36
825.413	1822.4
825.595	1788.88
825.777	1719.72
825.958	1770.28
826.14	1748.58
826.321	1777.84
826.503	1765.25
826.685	1779.97
826.866	1825.89
827.048	1813.3
827.229	1760.21
827.411	1723.01
827.592	1638.92
827.773	1679.22
827.955	1611.99
828.136	1635.63
828.318	1554.26
828.499	1620.71
828.68	1561.62
828.862	1586.22
829.043	1606.18
829.224	1562.59
829.406	1569.95
829.587	1592.04
829.768	1593.2
829.949	1609.09
830.131	1599.21
830.312	1640.28
830.493	1591.46
830.674	1617.03
830.855	1594.17
831.036	1576.73
831.218	1665.08
831.399	1671.86
831.58	1623.62
831.761	1593.39
831.942	1614.9
832.123	1604.05
832.304	1557.55
832.485	1541.66
832.666	1587.58
832.847	1640.86
833.028	1556.39
833.209	1582.35
833.389	1584.09
833.57	1570.72
833.751	1566.66
833.932	1632.14
834.113	1587
834.294	1557.16
834.475	1643.19
834.655	1647.64
834.836	1658.1
835.017	1656.17
835.198	1560.84
835.378	1629.62
835.559	1652.29
835.74	1636.41
835.92	1625.17
836.101	1611.8
836.281	1685.04
836.462	1667.4
836.643	1666.05
836.823	1710.8
837.004	1708.48
837.184	1708.29
837.365	1726.5
837.545	1709.25
837.726	1624.59
837.906	1740.25
838.087	1666.24
838.267	1682.32
838.448	1655.59
838.628	1683.49
838.808	1688.14
838.989	1696.27
839.169	1631.76
839.349	1698.21
839.53	1730.95
839.71	1744.9
839.89	1645.9
840.07	1709.45
840.251	1661.79
840.431	1725.92
840.611	1665.85
840.791	1638.15
840.971	1707.7
841.151	1655
841.332	1638.54
841.512	1730.95
841.692	1609.67
841.872	1652.1
842.052	1650.74
842.232	1698.02
842.412	1630.01
842.592	1626.14
842.772	1685.62
842.952	1678.25
843.132	1614.12
843.312	1629.43
843.492	1618.39
843.672	1666.24
843.851	1588.36
844.031	1653.26
844.211	1608.31
844.391	1588.55
844.571	1619.94
844.751	1641.44
844.93	1633.69
845.11	1607.73
845.29	1649.58
845.47	1653.45
845.649	1625.17
845.829	1661.98
846.009	1611.99
846.188	1665.08
846.368	1625.56
846.547	1612.96
846.727	1653.07
846.907	1578.09
847.086	1611.22
847.266	1637.96
847.445	1612.57
847.625	1588.55
847.804	1581.77
847.984	1589.52
848.163	1576.15
848.343	1599.4
848.522	1574.79
848.701	1612.96
848.881	1566.46
849.06	1566.07
849.239	1580.99
849.419	1571.31
849.598	1489.93
849.777	1486.06
849.957	1498.84
850.136	1439.56
850.315	1429.87
850.494	1424.25
850.674	1400.81
850.853	1481.6
851.032	1437.81
851.211	1502.33
851.39	1481.02
851.569	1413.4
851.748	1451.57
851.927	1482.38
852.107	1479.47
852.286	1411.46
852.465	1405.07
852.644	1508.53
852.823	1460.48
853.002	1474.63
853.181	1445.56
853.359	1450.99
853.538	1442.46
853.717	1475.6
853.896	1328.73
854.075	1302.39
854.254	1302.77
854.433	1229.34
854.611	1273.71
854.79	1223.92
854.969	1275.26
855.148	1316.72
855.327	1295.6
855.505	1321.76
855.684	1268.67
855.863	1340.94
856.041	1312.65
856.22	1345.98
856.399	1326.22
856.577	1436.46
856.756	1415.73
856.934	1490.13
857.113	1491.68
857.291	1393.64
857.47	1382.6
857.648	1414.56
857.827	1400.23
858.005	1453.31
858.184	1369.81
858.362	1471.14
858.541	1389.18
858.719	1431.23
858.898	1405.26
859.076	1384.15
859.254	1474.43
859.433	1369.03
859.611	1377.56
859.789	1335.71
859.967	1414.18
860.146	1454.86
860.324	1353.15
860.502	1361.09
860.68	1312.85
860.859	1321.76
861.037	1323.5
861.215	1372.52
861.393	1378.53
861.571	1367.1
861.749	1324.47
861.927	1376.2
862.105	1326.6
862.283	1337.65
862.461	1332.8
862.639	1287.47
862.817	1303.16
862.995	1348.88
863.173	1303.74
863.351	1328.15
863.529	1323.31
863.707	1361.67
863.885	1352.95
864.063	1268.87
864.241	1272.16
864.418	1356.25
864.596	1286.3
864.774	1254.72
864.952	1275.65
865.129	1283.4
865.307	1233.22
865.485	1249.49
865.663	1273.32
865.84	1210.16
866.018	1257.63
866.196	1121.81
866.373	1093.53
866.551	1101.28
866.728	1071.83
866.906	1111.93
867.084	1110.96
867.261	1156.11
867.439	1153.97
867.616	1192.92
867.794	1188.46
867.971	1146.03
868.149	1166.37
868.326	1227.4
868.503	1221.01
868.681	1205.51
868.858	1170.64
869.035	1163.47
869.213	1199.89
869.39	1160.76
869.567	1258.6
869.745	1182.84
869.922	1210.55
870.099	1236.9
870.276	1221.4
870.454	1242.9
870.631	1222.95
870.808	1174.71
870.985	1219.85
871.162	1225.85
871.339	1194.86
871.517	1138.28
871.694	1181.29
871.871	1167.73
872.048	1158.43
872.225	1174.32
872.402	1177.42
872.579	1165.21
872.756	1194.86
872.933	1104.57
873.11	1135.18
873.287	1161.92
873.463	1136.73
873.64	1117.16
873.817	1174.71
873.994	1122.98
874.171	1106.12
874.348	1160.76
874.524	1074.93
874.701	1137.89
874.878	1048.77
875.055	1104.18
875.231	1074.54
875.408	1111.16
875.585	1041.21
875.762	1118.71
875.938	1075.7
876.115	1091.98
876.291	1067.56
876.468	1057.29
876.645	1051.29
876.821	1053.23
876.998	1039.47
877.174	1112.9
877.351	1040.05
877.527	1045.67
877.704	1088.49
877.88	1032.5
878.057	1046.83
878.233	1074.93
878.409	1042.38
878.586	1047.03
878.762	1043.15
878.938	1049.16
879.115	983.28
879.291	1046.64
879.467	973.6
879.644	1006.34
879.82	1056.13
879.996	1001.3
880.172	965.26
880.349	1003.82
880.525	1064.08
880.701	993.94
880.877	1000.53
881.053	992.39
881.229	1015.64
881.405	1031.53
881.581	969.14
881.757	1016.22
881.933	1024.55
882.109	1049.74
882.285	1042.18
882.461	988.71
882.637	998.98
882.813	954.22
882.989	989.48
883.165	1029.2
883.341	961.78
883.517	1049.16
883.693	1009.63
883.869	1017
884.044	982.7
884.22	1044.31
884.396	1045.09
884.572	1031.91
884.747	1010.02
884.923	1026.1
885.099	1050.9
885.275	1027.26
885.45	988.9
885.626	991.81
885.801	979.99
885.977	982.31
886.153	944.73
886.328	993.36
886.504	948.99
886.679	959.84
886.855	998.59
887.03	1012.93
887.206	1034.43
887.381	1022.23
887.557	1031.72
887.732	1018.93
887.908	1030.17
888.083	1025.52
888.258	1007.31
888.434	976.89
888.609	975.53
888.784	1036.18
888.96	985.8
889.135	985.22
889.31	928.07
889.485	1006.15
889.661	999.75
889.836	1010.6
890.011	991.03
890.186	985.22
890.361	978.83
890.537	1006.73
890.712	999.17
890.887	986.96
891.062	1000.33
891.237	1076.86
891.412	963.91
891.587	983.86
891.762	986.77
891.937	1016.03
892.112	952.09
892.287	968.56
892.462	943.18
892.637	916.63
892.812	914.5
892.987	910.63
893.161	912.57
893.336	902.68
893.511	892.22
893.686	932.33
893.861	898.23
894.035	893.38
894.21	893.97
894.385	825.96
894.56	885.05
894.734	823.05
894.909	836.42
895.084	808.91
895.258	789.15
895.433	831.39
895.608	762.02
895.782	742.65
895.957	744.39
896.131	732.77
896.306	695.18
896.48	693.44
896.655	707.77
896.829	652.94
897.004	632.21
897.178	670.58
897.353	613.23
897.527	689.37
897.701	669.03
897.876	616.52
898.05	711.46
898.224	656.63
898.399	703.9
898.573	651.78
898.747	543.67
898.921	612.84
899.096	529.53
899.27	517.71
899.444	516.16
899.618	564.98
899.792	601.6
899.967	566.34
900.141	603.93
900.315	561.3
900.489	566.34
900.663	577.38
900.837	564.21
901.011	514.22
901.185	612.84
901.359	592.3
901.533	580.48
901.707	594.63
901.881	555.3
902.055	529.72
902.229	576.8
902.403	602.57
902.576	561.3
902.75	577.77
902.924	697.31
903.098	629.69
903.272	700.02
903.446	710.1
903.619	693.05
903.793	696.54
903.967	693.44
904.14	721.53
904.314	737.03
904.488	722.89
904.661	742.65
904.835	703.9
905.009	758.92
905.182	773.26
905.356	706.81
905.529	740.91
905.703	690.73
905.876	712.23
906.05	651.01
906.223	657.59
906.397	593.46
906.57	571.38
906.744	568.28
906.917	579.9
907.09	569.44
907.264	571.96
907.437	529.53
907.61	510.73
907.784	535.15
907.957	567.11
908.13	507.44
908.304	564.98
908.477	491.17
908.65	546.19
908.823	476.25
908.996	553.36
909.17	516.35
909.343	514.42
909.516	510.35
909.689	497.17
909.862	507.63
910.035	495.43
910.208	472.57
910.381	448.15
910.554	551.23
910.727	502.21
910.9	478.96
911.073	493.88
911.246	556.46
911.419	538.83
911.592	519.65
911.765	494.07
911.938	472.95
912.11	483.61
912.283	519.65
912.456	549.1
912.629	520.03
912.802	481.09
912.974	424.71
913.147	406.69
913.32	380.54
913.493	384.6
913.665	431.88
913.838	433.82
914.01	412.89
914.183	456.29
914.356	422.77
914.528	481.48
914.701	513.25
914.873	472.76
915.046	441.37
915.218	393.9
915.391	323.77
915.563	355.74
915.736	420.84
915.908	420.06
916.081	447.18
916.253	416.77
916.425	423.94
916.598	459.78
916.77	427.04
916.942	391.97
917.115	338.88
917.287	411.34
917.459	385.57
917.632	371.43
917.804	350.7
917.976	404.56
918.148	418.7
918.32	414.25
918.493	438.66
918.665	478.96
918.837	455.9
919.009	502.6
919.181	480.32
919.353	452.22
919.525	438.08
919.697	447.77
919.869	467.72
920.041	523.71
920.213	568.08
920.385	470.63
920.557	481.48
920.729	507.44
920.901	486.32
921.073	490.78
921.244	449.7
921.416	472.76
921.588	471.4
921.76	454.55
921.932	529.72
922.103	464.23
922.275	461.91
922.447	460.17
922.619	404.75
922.79	449.12
922.962	436.53
923.134	455.13
923.305	423.74
923.477	398.75
923.648	418.51
923.82	383.64
923.991	373.37
924.163	370.27
924.335	375.5
924.506	395.07
924.677	439.63
924.849	370.85
925.02	394.49
925.192	447.57
925.363	384.02
925.535	408.24
925.706	357.67
925.877	432.65
926.049	364.26
926.22	414.05
926.391	404.75
926.562	420.84
926.734	359.22
926.905	426.65
927.076	339.66
927.247	363.29
927.419	330.74
927.59	317.18
927.761	312.92
927.932	305.17
928.103	316.21
928.274	270.87
928.445	266.22
928.616	298.39
928.787	256.73
928.958	314.08
929.129	291.41
929.3	277.27
929.471	233.29
929.642	206.36
929.813	150.17
929.984	229.61
930.155	161.6
930.326	225.15
930.496	176.52
930.667	131.57
930.838	165.67
931.009	107.93
931.18	149.78
931.35	172.45
931.521	149.98
931.692	118.98
931.863	82.36
932.033	130.8
932.204	115.68
932.374	153.46
932.545	75
932.716	134.67
932.886	124.4
933.057	60.47
933.227	61.82
933.398	109.1
933.568	54.27
933.739	43.22
933.909	52.52
934.08	83.13
934.25	11.25
934.421	38.96
934.591	79.26
934.761	46.9
934.932	29.85
935.102	62.98
935.272	13.77
935.443	53.68
935.613	60.66
935.783	53.68
935.953	11.45
936.123	182.33
936.294	6.6
936.464	31.4
936.634	51.17
936.804	32.76
936.974	17.84
937.144	57.95
937.314	86.04
937.484	25.2
937.655	10.09
937.825	83.52
937.995	43.61
938.165	65.5
938.334	43.8
938.504	59.69
938.674	41.67
938.844	61.63
939.014	112.2
939.184	79.65
939.354	156.95
939.524	113.94
939.694	50.39
939.863	83.71
940.033	138.16
940.203	153.27
940.373	111.42
940.542	142.81
940.712	87.2
940.882	121.5
941.051	102.51
941.221	136.03
941.391	137.77
941.56	91.27
941.73	60.27
941.899	184.08
942.069	86.23
942.238	96.7
942.408	71.12
942.577	123.63
942.747	90.88
942.916	39.15
943.086	68.6
943.255	125.37
943.425	85.46
943.594	37.22
943.763	35.08
943.933	70.73
944.102	14.93
944.271	80.23
944.441	86.23
944.61	55.04
944.779	58.53
944.948	144.16
945.117	49.62
945.287	69.38
945.456	12.22
945.625	27.72
945.794	78.29
945.963	20.17
946.132	56.78
946.301	25.01
946.47	93.01
946.639	10.67
946.808	54.65
946.977	79.84
947.146	111.03
947.315	45.74
947.484	105.41
947.653	44.58
947.822	70.73
947.991	39.35
948.16	115.1
948.329	122.27
948.498	85.26
948.666	44
948.835	88.36
949.004	24.43
949.173	13.38
949.341	61.05
949.51	91.85
949.679	109.1
949.847	100.38
950.016	140.87
950.185	130.21
950.353	23.65
950.522	66.47
950.69	122.46
950.859	46.13
951.028	130.99
951.196	89.14
951.365	55.62
951.533	86.62
951.701	86.23
951.87	108.13
952.038	39.15
952.207	76.93
952.375	120.33
952.543	61.05
952.712	68.6
952.88	44.97
953.048	122.66
953.217	82.55
953.385	68.22
953.553	110.65
953.721	53.3
953.89	72.28
954.058	7.77
954.226	57.37
954.394	90.69
954.562	21.33
954.73	78.87
954.898	54.65
955.067	111.81
955.235	18.42
955.403	100.18
955.571	100.18
955.739	102.12
955.907	26.37
956.075	49.03
956.243	64.92
956.41	80.42
956.578	30.82
956.746	46.9
956.914	43.42
957.082	124.4
957.25	91.85
957.418	71.51
957.585	73.45
957.753	115.3
957.921	30.43
958.089	87.78
958.256	92.63
958.424	75.38
958.592	69.77
958.759	21.91
958.927	94.95
959.095	43.61
959.262	83.33
959.43	83.71
959.597	23.85
959.765	84.88
959.932	39.54
960.1	107.55
960.267	58.53
960.435	79.65
960.602	108.32
960.77	61.05
960.937	47.68
961.104	75.77
961.272	39.35
961.439	64.92
961.606	106.58
961.774	100.76
961.941	59.88
962.108	105.8
962.275	114.52
962.443	121.11
962.61	88.56
962.777	117.62
962.944	109.1
963.111	96.5
963.278	118.98
963.446	105.41
963.613	95.34
963.78	98.05
963.947	114.33
964.114	88.56
964.281	147.65
964.448	107.93
964.615	84.68
964.782	100.76
964.949	141.06
965.116	111.03
965.282	124.21
965.449	92.05
965.616	60.08
965.783	119.36
965.95	71.9
966.117	64.73
966.283	86.62
966.45	113.16
966.617	109.68
966.784	133.12
966.95	143.2
967.117	120.72
967.284	52.72
967.45	87.2
967.617	153.85
967.784	144.75
967.95	169.35
968.117	92.43
968.283	150.36
968.45	194.93
968.616	147.07
968.783	132.93
968.949	119.56
969.116	171.09
969.282	105.22
969.449	105.22
969.615	134.48
969.781	69.38
969.948	100.96
970.114	92.05
970.28	157.73
970.447	137.96
970.613	177.68
970.779	106.38
970.945	118.78
971.112	121.5
971.278	107.16
971.444	104.45
971.61	160.44
971.776	90.5
971.942	130.02
972.108	135.25
972.275	129.83
972.441	106.19
972.607	166.06
972.773	89.53
972.939	142.81
973.105	108.13
973.271	63.76
973.437	117.23
973.602	92.24
973.768	121.5
973.934	93.79
974.1	109.48
974.266	44.58
974.432	83.13
974.598	92.43
974.763	149.59
974.929	99.21
975.095	120.14
975.261	79.65
975.426	74.03
975.592	99.6
975.758	148.81
975.923	64.92
976.089	60.66
976.255	135.06
976.42	112
976.586	115.68
976.751	129.25
976.917	183.49
977.082	129.05
977.248	89.53
977.413	57.37
977.579	71.9
977.744	136.61
977.91	81.2
978.075	86.62
978.24	121.69
978.406	98.05
978.571	66.08
978.736	80.81
978.902	123.05
979.067	65.5
979.232	46.13
979.397	80.03
979.563	154.05
979.728	66.08
979.893	81.2
980.058	70.73
980.223	165.48
980.388	108.51
980.554	84.68
980.719	81.58
980.884	88.95
981.049	119.17
981.214	92.82
981.379	107.16
981.544	90.5
981.709	56.98
981.874	77.71
982.039	100.96
982.204	129.83
982.368	102.51
982.533	71.12
982.698	121.11
982.863	144.75
983.028	99.21
983.193	99.02
983.357	78.48
983.522	122.46
983.687	79.07
983.852	80.42
984.016	97.86
984.181	99.99
984.346	105.22
984.51	112.2
984.675	97.66
984.839	106.19
985.004	112.39
985.168	148.43
985.333	104.06
985.498	97.28
985.662	121.69
985.827	121.3
985.991	103.86
986.155	86.04
986.32	102.51
986.484	156.95
986.649	98.63
986.813	79.84
986.977	106.58
987.142	135.25
987.306	66.86
987.47	68.99
987.634	88.17
987.799	103.48
987.963	125.18
988.127	149.2
988.291	166.25
988.455	98.63
988.62	83.13
988.784	87.59
988.948	126.92
989.112	74.03
989.276	101.54
989.44	71.51
989.604	76.74
989.768	91.46
989.932	179.62
990.096	64.73
990.26	56.4
990.424	54.07
990.588	87.98
990.752	147.85
990.915	117.23
991.079	62.79
991.243	64.15
991.407	104.45
991.571	70.93
991.734	97.47
991.898	119.75
992.062	145.13
992.226	87.78
992.389	62.02
992.553	58.14
992.717	59.88
992.88	68.6
993.044	79.84
993.207	47.29
993.371	113.94
993.535	87.59
993.698	89.14
993.862	127.31
994.025	133.7
994.189	108.13
994.352	85.26
994.515	113.94
994.679	100.76
994.842	60.85
995.006	105.03
995.169	80.61
995.332	80.61
995.496	85.07
995.659	31.98
995.822	68.6
995.985	66.67
996.149	114.52
996.312	62.79
996.475	137.58
996.638	94.56
996.801	116.85
996.964	158.89
997.128	89.91
997.291	64.34
997.454	93.98
997.617	77.13
997.78	115.88
997.943	80.03
998.106	113.16
998.269	48.07
998.432	75.97
998.595	77.9
998.758	47.68
998.92	69.77
999.083	43.22
999.246	71.51
999.409	50.78
999.572	14.55
999.735	37.22
999.897	96.5
1000.06	60.47
1000.223	43.22
1000.386	87.01
1000.548	104.64
1000.711	109.29
1000.874	69.96
1001.036	31.98
1001.199	99.6
1001.361	49.62
1001.524	66.28
1001.687	103.48
1001.849	51.94
1002.012	69.18
1002.174	95.34
1002.337	99.21
1002.499	76.35
1002.661	106.38
1002.824	19.97
1002.986	53.88
1003.149	72.09
1003.311	17.65
1003.473	109.68
1003.636	39.73
1003.798	86.62
1003.96	100.96
1004.123	63.57
1004.285	68.02
1004.447	39.15
1004.609	55.62
1004.771	101.15
1004.933	18.03
1005.096	43.22
1005.258	27.14
1005.42	56.2
1005.582	83.52
1005.744	88.75
1005.906	15.9
1006.068	70.73
1006.23	29.66
1006.392	18.42
1006.554	27.53
1006.716	63.76
1006.878	52.33
1007.04	13.19
1007.202	48.26
1007.363	63.95
1007.525	50.2
1007.687	57.56
1007.849	96.89
1008.011	14.55
1008.172	23.85
1008.334	48.65
1008.496	54.46
1008.658	-22.85
1008.819	35.67
1008.981	21.52
1009.143	18.23
1009.304	56.98
1009.466	80.23
1009.627	110.84
1009.789	133.12
1009.95	43.61
1010.112	34.31
1010.273	37.99
1010.435	51.36
1010.596	35.28
1010.758	53.88
1010.919	24.04
1011.081	18.42
1011.242	45.74
1011.403	53.1
1011.565	27.14
1011.726	54.65
1011.887	36.63
1012.049	61.63
1012.21	68.02
1012.371	93.98
1012.532	-9.28
1012.693	39.93
1012.855	27.53
1013.016	54.85
1013.177	78.68
1013.338	55.62
1013.499	80.03
1013.66	48.65
1013.821	54.85
1013.982	61.63
1014.143	52.91
1014.304	30.63
1014.465	64.92
1014.626	70.73
1014.787	34.5
1014.948	119.36
1015.109	-7.93
1015.27	91.46
1015.431	46.32
1015.592	31.02
1015.752	81.2
1015.913	36.83
1016.074	41.09
1016.235	35.08
1016.395	44.38
1016.556	33.92
1016.717	12.03
1016.877	73.45
1017.038	0.79
1017.199	51.36
1017.359	44.97
1017.52	49.42
1017.681	31.4
1017.841	30.05
1018.002	34.7
1018.162	38.38
1018.323	80.61
1018.483	19.2
1018.644	19
1018.804	13.19
1018.964	-10.64
1019.125	21.13
1019.285	43.61
1019.446	21.13
1019.606	34.12
1019.766	-13.93
1019.926	53.3
1020.087	52.52
1020.247	-9.09
1020.407	71.32
1020.567	104.83
1020.728	9.51
1020.888	-2.12
1021.048	30.05
1021.208	-10.25
1021.368	25.4
1021.528	82.55
1021.688	60.08
1021.848	59.11
1022.008	46.9
1022.168	4.28
1022.328	44.97
1022.488	53.88
1022.648	37.8
1022.808	15.71
1022.968	54.65
1023.128	26.95
1023.288	26.56
1023.448	19
1023.608	30.05
1023.767	34.31
1023.927	29.66
1024.087	0.79
1024.247	9.7
1024.406	26.17
1024.566	-10.45
1024.726	15.13
1024.885	12.42
1025.045	59.88
1025.205	25.01
1025.364	19.78
1025.524	30.63
1025.683	10.48
1025.843	17.26
1026.003	33.73
1026.162	61.43
1026.321	78.48
1026.481	17.84
1026.64	11.64
1026.8	13.58
1026.959	25.59
1027.119	43.8
1027.278	16.29
1027.437	28.5
1027.597	45.55
1027.756	67.63
1027.915	56.2
1028.074	37.6
1028.234	3.12
1028.393	30.82
1028.552	19.2
1028.711	-36.21
1028.87	41.09
1029.03	17.65
1029.189	34.31
1029.348	-14.9
1029.507	13.19
1029.666	-0.95
1029.825	-2.31
1029.984	-15.1
1030.143	61.43
1030.302	14.93
1030.461	-9.67
1030.62	20.17
1030.779	42.64
1030.938	-7.54
1031.097	6.02
1031.255	36.63
1031.414	50.97
1031.573	58.72
1031.732	-26.91
1031.891	6.8
1032.049	69.18
1032.208	42.06
1032.367	1.76
1032.525	11.64
1032.684	31.02
1032.843	26.17
1033.001	-25.36
1033.16	148.04
1033.319	51.36
1033.477	43.8
1033.636	29.85
1033.794	-16.06
1033.953	58.14
1034.111	32.76
1034.27	-23.81
1034.428	48.26
1034.587	-7.54
1034.745	28.5
1034.903	21.72
1035.062	13.19
1035.22	-17.81
1035.378	59.3
1035.537	-8.51
1035.695	25.2
1035.853	29.85
1036.011	32.76
1036.17	20.36
1036.328	-25.17
1036.486	30.82
1036.644	36.05
1036.802	-55.78
1036.96	17.26
1037.119	19.39
1037.277	36.83
1037.435	-8.51
1037.593	17.26
1037.751	14.74
1037.909	56.4
1038.067	56.4
