Data from oakcork_FLMT105791__160__17-31-33-058.txt Node

Date: Mon Mar 20 17:31:33 GMT 2023
User: antho
Spectrometer: FLMT10579
Trigger mode: 0
Integration Time (sec): 1.000000E-1
Scans to average: 10
Electric dark correction enabled: true
Nonlinearity correction enabled: false
Boxcar width: 0
XAxis mode: Wavelengths
Number of Pixels in Spectrum: 3648
>>>>>Begin Spectral Data<<<<<
345.248	-140.79
345.464	-140.79
345.681	-140.79
345.898	-148.15
346.114	-150.09
346.331	-22.99
346.548	28.35
346.764	-10.4
346.981	1.03
347.197	-12.14
347.414	20.21
347.631	-29.19
347.847	33.78
348.064	3.75
348.28	31.26
348.497	-33.84
348.713	-9.82
348.93	26.22
349.146	39.2
349.363	-6.72
349.579	29.71
349.796	-6.14
350.012	5.88
350.229	25.25
350.445	-2.07
350.661	-14.08
350.878	-0.9
351.094	36.68
351.311	4.33
351.527	8.2
351.743	5.68
351.96	9.36
352.176	20.41
352.392	21.57
352.609	38.43
352.825	-16.99
353.041	-4
353.257	0.06
353.474	27
353.69	27.77
353.906	21.38
354.122	-25.32
354.339	49.47
354.555	4.13
354.771	-8.07
354.987	46.18
355.203	42.69
355.42	-21.64
355.636	-18.15
355.852	-4
356.068	17.89
356.284	-20.86
356.5	49.08
356.716	10.33
356.932	-4.97
357.148	16.15
357.364	2.2
357.58	31.45
357.796	30.1
358.012	33.97
358.228	55.09
358.444	-41.2
358.66	39.01
358.876	17.31
359.092	-29.97
359.308	-0.32
359.524	29.9
359.74	-16.6
359.956	-15.82
360.172	-2.45
360.388	49.08
360.604	0.84
360.819	81.24
361.035	-0.9
361.251	54.12
361.467	1.23
361.683	51.8
361.898	16.15
362.114	18.47
362.33	4.13
362.546	35.13
362.762	24.67
362.977	-0.9
363.193	-35.39
363.409	29.32
363.624	-18.92
363.84	-12.53
364.056	3.55
364.271	49.66
364.487	9.75
364.703	-6.33
364.918	-13.5
365.134	-9.24
365.35	-5.94
365.565	113.79
365.781	32.81
365.996	13.24
366.212	47.73
366.427	7.62
366.643	-2.84
366.858	8.2
367.074	-26.87
367.289	54.51
367.505	96.74
367.72	-44.69
367.936	6.07
368.151	21.96
368.367	38.43
368.582	23.9
368.798	-33.65
369.013	57.22
369.228	27.19
369.444	-3.42
369.659	54.12
369.874	37.46
370.09	53.73
370.305	-8.85
370.52	-0.32
370.736	54.7
370.951	1.23
371.166	47.15
371.381	76.01
371.597	35.91
371.812	-18.73
372.027	-19.12
372.242	2.78
372.458	64.58
372.673	15.37
372.888	23.12
373.103	35.71
373.318	95.19
373.533	33.39
373.749	22.54
373.964	-15.44
374.179	32.03
374.394	-6.72
374.609	52.38
374.824	-4.59
375.039	62.84
375.254	-20.86
375.469	63.23
375.684	7.23
375.899	43.46
376.114	26.22
376.329	24.48
376.544	45.6
376.759	38.43
376.974	-11.17
377.189	23.51
377.404	8.4
377.619	58.58
377.834	-24.74
378.049	-29.97
378.264	-3.81
378.478	11.5
378.693	-3.04
378.908	38.04
379.123	2.39
379.338	58
379.553	-0.71
379.767	27.19
379.982	37.07
380.197	41.33
380.412	-4.97
380.626	10.72
380.841	84.15
381.056	39.98
381.271	77.18
381.485	-18.92
381.7	-17.18
381.915	35.91
382.129	8.98
382.344	30.1
382.559	24.86
382.773	64.19
382.988	-20.67
383.202	-3.81
383.417	-24.74
383.632	111.08
383.846	47.34
384.061	34.16
384.275	-4.39
384.49	46.76
384.704	73.49
384.919	20.99
385.133	43.27
385.348	29.32
385.562	-14.66
385.777	54.12
385.991	12.46
386.206	-10.2
386.42	5.88
386.634	76.4
386.849	24.28
387.063	21.18
387.277	16.34
387.492	-17.76
387.706	-11.37
387.92	-14.47
388.135	47.34
388.349	45.6
388.563	21.57
388.778	60.32
388.992	46.76
389.206	25.64
389.42	84.15
389.635	57.41
389.849	56.45
390.063	59.16
390.277	30.1
390.491	96.36
390.706	57.03
390.92	52.38
391.134	31.45
391.348	21.18
391.562	-45.08
391.776	-6.91
391.99	-1.29
392.205	55.09
392.419	-12.14
392.633	-0.32
392.847	76.21
393.061	-16.79
393.275	67.68
393.489	29.13
393.703	34.36
393.917	61.68
394.131	3.16
394.345	51.99
394.559	70.2
394.773	-10.01
394.986	50.44
395.2	32.42
395.414	39.2
395.628	5.49
395.842	30.68
396.056	0.84
396.27	-41.01
396.484	52.57
396.697	44.05
396.911	84.15
397.125	52.38
397.339	55.48
397.553	63.23
397.766	81.63
397.98	58.58
398.194	53.54
398.408	4.13
398.621	44.24
398.835	56.06
399.049	34.55
399.262	65.36
399.476	54.9
399.69	51.02
399.903	103.14
400.117	40.95
400.331	53.35
400.544	30.29
400.758	138.21
400.971	40.95
401.185	74.46
401.398	4.71
401.612	69.62
401.826	58.58
402.039	57.8
402.253	32.03
402.466	39.98
402.68	29.71
402.893	42.88
403.106	48.7
403.32	39.4
403.533	53.54
403.747	53.54
403.96	57.41
404.174	54.9
404.387	-3.81
404.6	22.93
404.814	79.69
405.027	25.45
405.24	30.87
405.454	18.86
405.667	91.71
405.88	3.75
406.094	46.56
406.307	80.47
406.52	51.41
406.733	35.13
406.947	13.43
407.16	101.39
407.373	79.11
407.586	22.35
407.799	15.95
408.012	73.88
408.226	47.73
408.439	78.34
408.652	8.59
408.865	62.84
409.078	73.88
409.291	64.19
409.504	32.42
409.717	47.34
409.93	45.01
410.143	54.51
410.357	4.91
410.57	14.98
410.783	42.3
410.996	40.56
411.209	59.93
411.421	91.13
411.634	54.51
411.847	3.36
412.06	51.6
412.273	32.81
412.486	47.73
412.699	127.94
412.912	56.25
413.125	75.04
413.338	60.13
413.55	74.66
413.763	34.16
413.976	66.71
414.189	25.25
414.402	46.56
414.615	96.55
414.827	46.37
415.04	76.79
415.253	53.15
415.466	67.88
415.678	125.42
415.891	36.68
416.104	76.59
416.316	38.23
416.529	34.36
416.742	67.29
416.954	88.22
417.167	55.48
417.38	24.67
417.592	99.26
417.805	33
418.017	-0.52
418.23	74.85
418.442	28.35
418.655	35.91
418.868	61.29
419.08	77.76
419.293	101.78
419.505	60.13
419.718	95.97
419.93	59.54
420.142	42.69
420.355	91.9
420.567	95.78
420.78	58.58
420.992	49.47
421.205	120.38
421.417	-5.17
421.629	44.43
421.842	4.33
422.054	20.8
422.266	64.78
422.479	97.52
422.691	30.48
422.903	92.09
423.115	51.02
423.328	66.52
423.54	83.57
423.752	38.04
423.964	21.18
424.177	45.98
424.389	32.81
424.601	166.11
424.813	77.37
425.025	82.6
425.238	107.79
425.45	49.08
425.662	43.46
425.874	331.37
426.086	74.08
426.298	99.46
426.51	59.35
426.722	68.46
426.934	49.66
427.146	96.94
427.358	16.15
427.57	106.24
427.782	76.21
427.994	65.36
428.206	51.41
428.418	-1.87
428.63	61.87
428.842	83.96
429.054	57.03
429.266	105.27
429.478	-0.52
429.69	73.3
429.902	7.81
430.114	97.52
430.325	68.07
430.537	50.25
430.749	74.85
430.961	27.96
431.173	44.82
431.384	95.78
431.596	12.46
431.808	47.53
432.02	66.13
432.231	76.59
432.443	101.98
432.655	78.53
432.867	50.83
433.078	83.76
433.29	127.36
433.502	97.52
433.713	115.34
433.925	94.42
434.136	91.32
434.348	40.56
434.56	28.74
434.771	162.62
434.983	29.9
435.194	48.5
435.406	57.8
435.617	82.99
435.829	118.83
436.04	102.94
436.252	106.04
436.463	117.28
436.675	81.83
436.886	80.66
437.098	139.95
437.309	131.23
437.521	82.6
437.732	85.12
437.943	83.57
438.155	77.18
438.366	26.8
438.578	130.07
438.789	78.14
439	128.52
439.211	65.55
439.423	88.99
439.634	118.64
439.845	117.28
440.057	91.13
440.268	119.99
440.479	70.98
440.69	85.31
440.902	105.46
441.113	81.63
441.324	70.59
441.535	89.96
441.746	142.28
441.957	21.76
442.168	43.27
442.38	96.94
442.591	92.87
442.802	86.67
443.013	77.18
443.224	103.72
443.435	60.51
443.646	73.69
443.857	65.94
444.068	58.77
444.279	50.44
444.49	153.9
444.701	90.35
444.912	173.27
445.123	101.98
445.334	98.68
445.545	110.5
445.756	79.89
445.967	40.17
446.178	111.47
446.388	141.89
446.599	112.24
446.81	132.98
447.021	90.16
447.232	116.31
447.443	132.01
447.653	72.33
447.864	124.26
448.075	89.58
448.286	115.34
448.496	89.58
448.707	118.64
448.918	78.14
449.129	183.54
449.339	50.05
449.55	119.22
449.761	75.04
449.971	142.66
450.182	97.91
450.393	119.61
450.603	80.08
450.814	143.05
451.024	113.79
451.235	149.44
451.446	162.81
451.656	146.54
451.867	70.2
452.077	126.78
452.288	170.37
452.498	147.31
452.709	114.38
452.919	137.43
453.13	116.31
453.34	138.59
453.55	78.92
453.761	150.8
453.971	112.24
454.182	135.49
454.392	128.91
454.602	178.12
454.813	126.19
455.023	154.09
455.233	61.29
455.444	110.89
455.654	68.84
455.864	110.31
456.075	104.88
456.285	88.8
456.495	83.76
456.705	132.01
456.916	185.29
457.126	181.61
457.336	125.42
457.546	63.42
457.756	111.08
457.967	158.55
458.177	98.68
458.387	118.44
458.597	114.18
458.807	113.41
459.017	117.48
459.227	103.72
459.437	123.09
459.647	146.73
459.857	145.76
460.068	105.08
460.278	161.84
460.488	149.64
460.698	180.64
460.908	119.8
461.117	71.75
461.327	94.42
461.537	132.39
461.747	127.94
461.957	122.32
462.167	234.11
462.377	160.68
462.587	131.04
462.797	155.64
463.007	129.68
463.216	150.41
463.426	154.48
463.636	145.38
463.846	116.89
464.056	123.48
464.265	185.29
464.475	130.26
464.685	122.51
464.895	147.51
465.104	130.84
465.314	162.62
465.524	102.75
465.733	123.87
465.943	184.51
466.153	207.37
466.362	173.86
466.572	115.34
466.782	113.99
466.991	135.69
467.201	178.31
467.41	99.65
467.62	164.94
467.829	121.16
468.039	141.69
468.249	132.2
468.458	143.05
468.668	179.28
468.877	169.98
469.086	179.47
469.296	191.87
469.505	113.6
469.715	205.44
469.924	158.55
470.134	175.99
470.343	176.96
470.552	167.07
470.762	144.41
470.971	101.39
471.18	147.7
471.39	159.52
471.599	128.71
471.808	156.22
472.018	122.71
472.227	151.19
472.436	157.39
472.645	142.66
472.855	127.94
473.064	192.26
473.273	138.59
473.482	151.96
473.691	185.87
473.901	191.1
474.11	170.95
474.319	245.54
474.528	159.13
474.737	195.56
474.946	186.06
475.155	185.87
475.364	175.6
475.573	163.39
475.783	175.41
475.992	199.82
476.201	215.12
476.41	152.16
476.619	140.14
476.828	192.07
477.037	157.19
477.245	148.47
477.454	205.63
477.663	156.42
477.872	139.56
478.081	208.34
478.29	143.44
478.499	238.37
478.708	149.06
478.917	240.89
479.125	210.09
479.334	189.55
479.543	161.26
479.752	200.98
479.961	199.62
480.169	201.56
480.378	168.43
480.587	282.94
480.796	201.95
481.004	192.07
481.213	193.62
481.422	212.8
481.63	202.53
481.839	201.95
482.048	262.59
482.256	207.18
482.465	195.56
482.674	219.19
482.882	243.02
483.091	254.07
483.299	210.67
483.508	222.1
483.716	207.18
483.925	217.84
484.134	200.01
484.342	209.31
484.551	254.07
484.759	230.82
484.967	215.32
485.176	244.38
485.384	253.68
485.593	240.5
485.801	201.95
486.01	252.9
486.218	213.38
486.426	175.21
486.635	199.62
486.843	211.83
487.051	225.97
487.26	243.22
487.468	239.15
487.676	271.12
487.885	200.59
488.093	217.64
488.301	244.38
488.509	237.99
488.717	255.23
488.926	228.3
489.134	205.44
489.342	231.79
489.55	197.3
489.758	235.85
489.967	209.12
490.175	317.23
490.383	216.67
490.591	291.65
490.799	204.08
491.007	280.03
491.215	241.09
491.423	249.8
491.631	262.98
491.839	248.45
492.047	275.19
492.255	216.67
492.463	234.69
492.671	224.42
492.879	297.47
493.087	234.89
493.295	272.28
493.503	284.87
493.711	278.48
493.919	294.17
494.127	276.93
494.334	284.49
494.542	222.49
494.75	237.6
494.958	262.79
495.166	284.68
495.374	288.55
495.581	253.49
495.789	258.91
495.997	329.63
496.205	265.3
496.412	266.85
496.62	268.99
496.828	293.01
497.035	266.66
497.243	295.53
497.451	302.31
497.658	282.16
497.866	287.2
498.074	315.87
498.281	259.69
498.489	334.86
498.696	295.72
498.904	275.57
499.112	275.77
499.319	379.42
499.527	257.55
499.734	324.78
499.942	266.27
500.149	277.7
500.357	294.56
500.564	246.32
500.771	310.45
500.979	295.72
501.186	260.07
501.394	281.39
501.601	317.04
501.808	324.78
502.016	282.74
502.223	316.45
502.43	305.8
502.638	327.3
502.845	256
503.052	345.52
503.26	280.03
503.467	357.92
503.674	310.06
503.881	323.82
504.089	380.58
504.296	355.4
504.503	285.45
504.71	327.69
504.917	282.35
505.125	320.91
505.332	318.59
505.539	338.15
505.746	356.95
505.953	339.32
506.16	312.97
506.367	380
506.574	405.38
506.781	366.63
506.988	277.32
507.195	326.92
507.402	309.09
507.609	355.4
507.816	342.03
508.023	355.98
508.23	335.63
508.437	303.28
508.644	348.03
508.851	385.82
509.058	341.64
509.265	358.5
509.472	365.86
509.679	461.96
509.885	360.05
510.092	344.74
510.299	350.94
510.506	357.72
510.713	350.94
510.92	374.38
511.126	395.7
511.333	421.27
511.54	365.28
511.746	420.11
511.953	415.85
512.16	426.31
512.367	362.95
512.573	363.34
512.78	401.7
512.987	392.4
513.193	411.97
513.4	320.91
513.606	378.45
513.813	408.68
514.02	372.83
514.226	463.51
514.433	441.61
514.639	361.21
514.846	390.66
515.052	371.87
515.259	380.39
515.465	393.76
515.672	393.18
515.878	512.33
516.085	405.38
516.291	451.3
516.497	368.38
516.704	418.17
516.91	382.91
517.117	357.33
517.323	336.8
517.529	382.33
517.736	429.8
517.942	411.97
518.148	369.93
518.354	404.61
518.561	390.47
518.767	417.78
518.973	457.11
519.179	454.79
519.386	391.24
519.592	380
519.798	406.93
520.004	455.18
520.21	443.16
520.417	492.57
520.623	446.26
520.829	511.36
521.035	499.16
521.241	477.65
521.447	496.44
521.653	596.03
521.859	462.15
522.065	487.53
522.271	567.16
522.477	509.81
522.683	539.65
522.889	537.33
523.095	526.67
523.301	503.81
523.507	499.16
523.713	538.1
523.919	494.9
524.125	539.65
524.331	503.81
524.537	566
524.742	547.79
524.948	569.49
525.154	558.25
525.36	654.74
525.566	562.51
525.772	620.25
525.977	513.49
526.183	589.25
526.389	629.55
526.595	561.35
526.8	548.37
527.006	509.81
527.212	520.47
527.417	519.89
527.623	478.62
527.829	592.93
528.034	582.86
528.24	578.98
528.446	536.55
528.651	642.14
528.857	579.76
529.062	641.37
529.268	578.79
529.473	601.84
529.679	593.12
529.884	657.06
530.09	625.29
530.295	660.94
530.501	655.71
530.706	640.79
530.912	602.42
531.117	645.24
531.323	626.26
531.528	662.87
531.733	644.47
531.939	609.98
532.144	646.02
532.35	648.92
532.555	660.74
532.76	671.79
532.966	682.05
533.171	665.97
533.376	641.56
533.581	616.57
533.787	685.54
533.992	677.6
534.197	701.04
534.402	640.79
534.607	652.22
534.813	731.85
535.018	670.43
535.223	634.2
535.428	679.15
535.633	689.61
535.838	669.27
536.043	705.89
536.249	739.99
536.454	700.07
536.659	740.18
536.864	668.49
537.069	678.76
537.274	709.18
537.479	723.9
537.684	737.47
537.889	700.85
538.094	770.6
538.299	704.92
538.504	750.45
538.708	737.27
538.913	734.75
539.118	686.32
539.323	714.22
539.528	689.42
539.733	697.55
539.938	735.34
540.142	726.23
540.347	699.1
540.552	684.57
540.757	702.4
540.962	717.32
541.166	658.81
541.371	694.45
541.576	725.26
541.781	610.17
541.985	722.16
542.19	720.03
542.395	738.63
542.599	801.79
542.804	755.49
543.008	812.45
543.213	700.85
543.418	717.12
543.622	762.27
543.827	691.35
544.031	813.22
544.236	789.2
544.44	740.57
544.645	830.66
544.849	750.06
545.054	776.8
545.258	856.43
545.463	800.43
545.667	764.2
545.872	784.74
546.076	756.07
546.281	779.7
546.485	716.93
546.689	760.33
546.894	809.93
547.098	766.53
547.302	714.6
547.507	753.74
547.711	758
547.915	850.03
548.119	735.92
548.324	772.73
548.528	831.43
548.732	775.83
548.936	818.65
549.141	831.05
549.345	770.6
549.549	774.28
549.753	782.8
549.957	845
550.161	823.49
550.366	802.76
550.57	747.54
550.774	779.12
550.978	779.9
551.182	804.31
551.386	795.4
551.59	750.84
551.794	757.81
551.998	797.72
552.202	776.8
552.406	754.13
552.61	778.35
552.814	784.55
553.018	858.95
553.222	794.23
553.426	777.38
553.63	851.2
553.833	772.34
554.037	754.13
554.241	807.99
554.445	777.96
554.649	792.3
554.853	754.9
555.056	807.99
555.26	813.03
555.464	812.06
555.668	794.04
555.871	845
556.075	826.4
556.279	774.86
556.483	739.99
556.686	788.42
556.89	779.7
557.094	803.15
557.297	729.91
557.501	808.38
557.704	748.9
557.908	815.35
558.112	765.95
558.315	854.49
558.519	785.71
558.722	792.49
558.926	753.35
559.129	716.54
559.333	707.82
559.536	718.48
559.74	689.03
559.943	741.34
560.147	710.92
560.35	719.25
560.553	741.15
560.757	699.49
560.96	755.49
561.164	703.56
561.367	787.45
561.57	744.64
561.774	761.68
561.977	732.62
562.18	733.01
562.384	800.63
562.587	731.65
562.79	741.73
562.993	725.07
563.197	770.79
563.4	810.12
563.603	767.69
563.806	825.82
564.009	694.26
564.212	744.25
564.416	700.27
564.619	753.74
564.822	691.55
565.025	755.68
565.228	721.97
565.431	729.72
565.634	643.89
565.837	689.22
566.04	694.65
566.243	677.6
566.446	623.16
566.649	751.61
566.852	662.29
567.055	666.17
567.258	708.79
567.461	751.22
567.664	769.43
567.867	647.57
568.07	709.37
568.273	679.15
568.475	743.86
568.678	662.68
568.881	667.91
569.084	674.3
569.287	597.39
569.489	624.12
569.692	684.57
569.895	679.73
570.098	630.52
570.3	615.79
570.503	569.68
570.706	591.57
570.909	591.38
571.111	608.62
571.314	553.79
571.516	598.16
571.719	632.07
571.922	601.84
572.124	588.67
572.327	609.4
572.529	569.1
572.732	560.19
572.935	615.79
573.137	646.02
573.34	581.11
573.542	632.46
573.745	627.42
573.947	614.05
574.15	578.21
574.352	565.42
574.554	622.38
574.757	565.81
574.959	593.12
575.162	574.33
575.364	586.92
575.566	638.66
575.769	570.46
575.971	570.84
576.173	482.88
576.376	562.51
576.578	600.29
576.78	621.61
576.982	508.84
577.185	580.14
577.387	516.21
577.589	516.98
577.791	581.89
577.993	595.06
578.196	547.4
578.398	559.03
578.6	592.74
578.802	527.64
579.004	508.46
579.206	525.31
579.408	559.22
579.61	511.75
579.812	577.04
580.014	544.49
580.216	552.83
580.418	540.23
580.62	524.93
580.822	464.28
581.024	544.69
581.226	557.09
581.428	523.96
581.63	582.66
581.832	531.13
582.034	583.82
582.236	547.21
582.438	556.12
582.64	568.91
582.841	580.34
583.043	624.9
583.245	572.59
583.447	558.44
583.649	540.04
583.85	567.74
584.052	573.17
584.254	520.86
584.456	577.24
584.657	495.09
584.859	553.21
585.061	518.14
585.262	518.14
585.464	510.39
585.666	532.29
585.867	512.14
586.069	595.45
586.27	550.5
586.472	551.47
586.674	534.81
586.875	527.83
587.077	509.62
587.278	544.11
587.48	526.28
587.681	654.93
587.883	532.09
588.084	479.59
588.285	498.38
588.487	496.64
588.688	493.35
588.89	487.92
589.091	475.91
589.292	469.71
589.494	503.81
589.695	482.5
589.896	417.78
590.098	417.78
590.299	494.9
590.5	448.01
590.702	442.78
590.903	482.5
591.104	523.96
591.305	494.12
591.507	517.56
591.708	512.53
591.909	473.78
592.11	563.29
592.311	505.16
592.512	477.85
592.714	425.34
592.915	439.87
593.116	496.44
593.317	485.79
593.518	449.17
593.719	482.69
593.92	505.16
594.121	510.59
594.322	483.08
594.523	486.56
594.724	442.78
594.925	427.28
595.126	523.57
595.327	486.95
595.528	478.04
595.729	484.05
595.929	482.88
596.13	507.29
596.331	456.92
596.532	481.53
596.733	547.01
596.934	503.03
597.135	519.89
597.335	476.3
597.536	422.63
597.737	466.03
597.938	450.53
598.138	479.01
598.339	457.11
598.54	479.78
598.74	467.19
598.941	476.88
599.142	545.08
599.342	493.93
599.543	450.72
599.744	460.99
599.944	460.99
600.145	452.85
600.345	485.21
600.546	558.06
600.746	528.03
600.947	528.61
601.147	484.43
601.348	504.39
601.548	493.93
601.749	494.51
601.949	444.13
602.15	448.59
602.35	477.85
602.551	524.34
602.751	472.61
602.951	456.53
603.152	411.58
603.352	493.15
603.552	478.62
603.753	481.91
603.953	474.75
604.153	484.63
604.354	469.9
604.554	454.6
604.754	468.93
604.954	446.46
605.155	455.95
605.355	456.73
605.555	509.04
605.755	497.8
605.955	470.87
606.155	494.31
606.356	486.76
606.556	498.58
606.756	496.25
606.956	431.93
607.156	521.83
607.356	421.85
607.556	493.15
607.756	479.98
607.956	526.09
608.156	482.5
608.356	461.18
608.556	472.81
608.756	450.14
608.956	433.48
609.156	482.11
609.356	426.7
609.556	449.17
609.755	444.91
609.955	442.58
610.155	495.09
610.355	448.4
610.555	473.78
610.755	442.2
610.954	401.12
611.154	441.61
611.354	488.7
611.554	408.29
611.753	419.53
611.953	401.32
612.153	493.54
612.352	446.65
612.552	408.1
612.752	375.16
612.951	424.76
613.151	451.88
613.351	406.93
613.55	445.1
613.75	454.6
613.949	439.1
614.149	440.06
614.348	404.03
614.548	416.62
614.747	359.85
614.947	402.67
615.146	371.67
615.346	452.85
615.545	413.71
615.745	453.24
615.944	454.21
616.144	413.71
616.343	451.5
616.542	383.88
616.742	409.84
616.941	415.85
617.14	379.42
617.34	414.3
617.539	422.24
617.738	385.43
617.938	471.65
618.137	381.94
618.336	360.24
618.535	421.46
618.734	396.47
618.934	434.64
619.133	418.75
619.332	410.03
619.531	379.62
619.73	400.93
619.929	423.6
620.128	421.66
620.328	463.12
620.527	381.17
620.726	371.67
620.925	389.88
621.124	398.22
621.323	419.53
621.522	374
621.721	378.65
621.92	397.63
622.119	398.41
622.318	377.68
622.517	376.9
622.715	389.3
622.914	331.76
623.113	394.92
623.312	340.48
623.511	388.53
623.71	353.27
623.909	361.79
624.107	440.84
624.306	312.97
624.505	387.95
624.704	353.85
624.902	343.77
625.101	425.34
625.3	389.69
625.499	360.63
625.697	345.32
625.896	364.12
626.095	392.98
626.293	352.3
626.492	354.04
626.69	382.52
626.889	310.84
627.088	403.83
627.286	325.56
627.485	349.58
627.683	317.23
627.882	372.83
628.08	283.32
628.279	324.98
628.477	421.08
628.676	338.93
628.874	346.48
629.073	316.26
629.271	293.4
629.469	361.6
629.668	353.07
629.866	355.4
630.065	349.97
630.263	388.92
630.461	329.05
630.66	349
630.858	385.82
631.056	383.1
631.254	369.93
631.453	318.97
631.651	376.9
631.849	361.79
632.047	384.07
632.245	351.33
632.444	354.04
632.642	360.24
632.84	359.27
633.038	344.55
633.236	314.32
633.434	313.94
633.632	303.86
633.83	329.63
634.028	347.84
634.227	332.73
634.425	407.52
634.623	334.08
634.821	343.19
635.019	345.32
635.216	314.52
635.414	371.67
635.612	331.95
635.81	352.3
636.008	384.65
636.206	335.44
636.404	352.49
636.602	314.52
636.8	341.64
636.997	356.17
637.195	379.03
637.393	357.33
637.591	388.33
637.789	367.22
637.986	334.28
638.184	354.23
638.382	359.66
638.58	368.57
638.777	414.49
638.975	334.86
639.173	334.28
639.37	358.88
639.568	347.26
639.765	375.93
639.963	327.11
640.161	387.17
640.358	373.61
640.556	333.12
640.753	296.5
640.951	316.84
641.148	347.84
641.346	344.93
641.543	338.73
641.741	353.07
641.938	311.42
642.136	312.39
642.333	311.61
642.531	362.95
642.728	384.85
642.925	328.27
643.123	340.28
643.32	315.68
643.517	308.9
643.715	355.78
643.912	336.22
644.109	337.57
644.306	319.94
644.504	285.45
644.701	316.84
644.898	342.22
645.095	319.17
645.293	311.61
645.49	355.2
645.687	340.09
645.884	379.81
646.081	279.06
646.278	329.82
646.475	308.7
646.672	302.89
646.87	333.12
647.067	321.49
647.264	365.28
647.461	260.46
647.658	275.19
647.855	319.55
648.052	288.94
648.249	246.32
648.446	312.97
648.642	274.8
648.839	283.52
649.036	288.36
649.233	255.42
649.43	303.67
649.627	259.3
649.824	280.22
650.021	276.93
650.217	280.8
650.414	274.41
650.611	298.05
650.808	276.74
651.004	294.56
651.201	316.65
651.398	340.48
651.595	293.2
651.791	281
651.988	323.62
652.185	282.74
652.381	320.91
652.578	268.6
652.775	297.85
652.971	296.5
653.168	288.17
653.364	325.95
653.561	240.5
653.757	259.49
653.954	293.98
654.15	270.73
654.347	338.15
654.543	281.39
654.74	248.25
654.936	212.02
655.133	267.82
655.329	280.03
655.525	269.57
655.722	306.57
655.918	234.11
656.115	311.42
656.311	232.56
656.507	232.37
656.704	214.54
656.9	230.82
657.096	233.53
657.292	226.17
657.489	280.22
657.685	277.12
657.881	236.82
658.077	254.45
658.273	243.41
658.47	323.43
658.666	262.2
658.862	303.86
659.058	224.23
659.254	262.4
659.45	247.09
659.646	276.54
659.842	262.01
660.038	300.95
660.234	203.5
660.43	246.7
660.626	345.52
660.822	303.86
661.018	283.13
661.214	235.27
661.41	234.69
661.606	274.99
661.802	303.47
661.998	253.49
662.194	229.85
662.39	274.8
662.586	298.63
662.781	272.47
662.977	290.88
663.173	278.09
663.369	286.62
663.564	244.57
663.76	281
663.956	274.99
664.152	313.35
664.347	199.43
664.543	237.6
664.739	268.6
664.934	196.33
665.13	211.06
665.326	288.94
665.521	255.81
665.717	221.32
665.912	225.78
666.108	177.73
666.304	220.94
666.499	249.22
666.695	168.04
666.89	217.06
667.086	285.07
667.281	263.17
667.477	308.32
667.672	250
667.867	245.35
668.063	278.67
668.258	228.49
668.454	227.14
668.649	292.62
668.844	246.9
669.04	265.5
669.235	251.74
669.43	208.92
669.626	193.81
669.821	227.14
670.016	190.32
670.211	225.01
670.407	220.94
670.602	238.18
670.797	244.96
670.992	260.27
671.187	185.48
671.382	274.8
671.578	231.01
671.773	263.17
671.968	200.4
672.163	252.13
672.358	241.86
672.553	214.35
672.748	208.73
672.943	269.95
673.138	225.97
673.333	227.33
673.528	193.04
673.723	287.39
673.918	231.98
674.113	191.49
674.308	300.95
674.503	255.42
674.698	274.6
674.892	217.84
675.087	259.3
675.282	227.52
675.477	211.44
675.672	263.75
675.867	243.02
676.061	193.42
676.256	164.94
676.451	226.75
676.646	224.23
676.84	205.24
677.035	183.93
677.23	169.4
677.424	242.05
677.619	261.04
677.814	229.46
678.008	261.24
678.203	185.48
678.397	202.53
678.592	233.14
678.787	267.82
678.981	222.49
679.176	246.12
679.37	228.11
679.565	200.4
679.759	195.75
679.954	228.69
680.148	285.45
680.342	255.04
680.537	243.22
680.731	200.98
680.926	253.1
681.12	247.09
681.314	222.49
681.509	232.95
681.703	217.64
681.897	278.87
682.092	229.66
682.286	222.49
682.48	287.78
682.674	249.22
682.869	228.69
683.063	220.55
683.257	282.16
683.451	216.29
683.645	266.66
683.839	243.22
684.034	243.6
684.228	278.29
684.422	188.77
684.616	197.49
684.81	254.65
685.004	225.39
685.198	197.49
685.392	266.08
685.586	212.02
685.78	276.93
685.974	278.09
686.168	249.61
686.362	289.52
686.556	214.74
686.75	182.38
686.944	211.64
687.138	266.47
687.331	182.57
687.525	225.78
687.719	137.43
687.913	204.47
688.107	209.7
688.301	174.82
688.494	220.36
688.688	175.6
688.882	180.06
689.076	197.11
689.269	196.14
689.463	268.79
689.657	196.52
689.85	223.26
690.044	211.44
690.238	214.16
690.431	203.69
690.625	210.47
690.818	214.35
691.012	229.07
691.205	235.08
691.399	184.12
691.593	208.54
691.786	272.09
691.98	237.79
692.173	307.35
692.366	260.07
692.56	277.9
692.753	322.65
692.947	217.64
693.14	300.76
693.333	284.68
693.527	240.5
693.72	275.77
693.914	242.25
694.107	271.12
694.3	271.5
694.493	278.29
694.687	319.75
694.88	265.89
695.073	312.77
695.266	316.65
695.46	282.55
695.653	314.9
695.846	317.62
696.039	258.91
696.232	286.42
696.425	331.95
696.618	320.72
696.812	300.76
697.005	362.37
697.198	400.73
697.391	341.25
697.584	359.85
697.777	424.56
697.97	396.47
698.163	363.92
698.356	386.98
698.549	462.54
698.742	427.28
698.935	357.33
699.127	384.85
699.32	359.08
699.513	367.6
699.706	397.05
699.899	416.62
700.092	391.82
700.285	443.94
700.477	371.28
700.67	433.86
700.863	471.65
701.056	512.91
701.248	477.85
701.441	487.53
701.634	437.93
701.826	525.12
702.019	437.55
702.212	516.98
702.404	459.25
702.597	462.93
702.79	464.67
702.982	489.08
703.175	520.86
703.367	523.57
703.56	528.03
703.752	592.16
703.945	568.13
704.137	558.83
704.33	594.48
704.522	582.66
704.715	583.05
704.907	588.28
705.1	637.88
705.292	641.76
705.484	590.99
705.677	642.34
705.869	637.49
706.061	672.95
706.254	700.07
706.446	652.41
706.638	633.42
706.831	690.58
707.023	663.65
707.215	752.39
707.407	728.55
707.599	732.62
707.792	784.74
707.984	748.9
708.176	786.1
708.368	748.7
708.56	768.66
708.752	756.07
708.944	773.89
709.136	824.85
709.329	794.04
709.521	866.89
709.713	854.68
709.905	847.9
710.097	910.1
710.289	769.24
710.481	877.55
710.672	881.23
710.864	867.08
711.056	934.31
711.248	927.53
711.44	902.35
711.632	903.9
711.824	935.67
712.016	993.99
712.207	953.69
712.399	971.71
712.591	1025.18
712.783	1034.09
712.975	1004.84
713.166	977.52
713.358	1018.59
713.55	1072.84
713.741	1038.74
713.933	1039.91
714.125	1073.62
714.316	1026.54
714.508	1117.99
714.7	1131.94
714.891	1121.47
715.083	1173.79
715.274	1112.56
715.466	1135.04
715.657	1132.52
715.849	1092.02
716.04	1154.22
716.232	1064.12
716.423	1161
716.615	1074.39
716.806	1079.62
716.998	1053.66
717.189	1009.88
717.381	984.49
717.572	1000.77
717.763	1019.18
717.955	1006.19
718.146	953.88
718.337	932.96
718.528	913
718.72	900.99
718.911	962.99
719.102	904.28
719.293	967.83
719.485	953.88
719.676	931.8
719.867	881.61
720.058	904.28
720.249	928.11
720.44	966.48
720.632	972.09
720.823	1023.63
721.014	1098.81
721.205	1106.94
721.396	1144.72
721.587	1216.8
721.778	1248.96
721.969	1276.67
722.16	1320.84
722.351	1284.41
722.542	1409.38
722.733	1408.61
722.924	1335.76
723.115	1373.34
723.305	1387.29
723.496	1398.92
723.687	1306.31
723.878	1332.08
724.069	1334.6
724.26	1320.84
724.45	1314.45
724.641	1273.57
724.832	1316.19
725.023	1332.27
725.213	1301.66
725.404	1311.15
725.595	1319.1
725.785	1310.57
725.976	1347
726.167	1381.87
726.357	1411.32
726.548	1452.39
726.739	1400.47
726.929	1419.84
727.12	1459.37
727.31	1495.6
727.501	1474.67
727.691	1476.22
727.882	1444.45
728.072	1509.36
728.263	1471.96
728.453	1527.57
728.644	1545
728.834	1552.37
729.024	1485.14
729.215	1521.95
729.405	1567.87
729.596	1628.12
729.786	1634.71
729.976	1636.65
730.167	1684.89
730.357	1590.15
730.547	1637.42
730.737	1645.56
730.928	1698.65
731.118	1760.65
731.308	1647.88
731.498	1681.4
731.688	1768.98
731.879	1773.63
732.069	1819.54
732.259	1851.51
732.449	1891.23
732.639	1947.61
732.829	1929.98
733.019	1993.72
733.209	2040.61
733.399	2041
733.589	2106.68
733.779	2129.15
733.969	2110.17
734.159	2158.41
734.349	2204.13
734.539	2273.69
734.729	2251.6
734.919	2280.47
735.109	2296.55
735.299	2235.33
735.488	2275.63
735.678	2294.03
735.868	2294.03
736.058	2316.12
736.248	2292.48
736.437	2272.14
736.627	2256.83
736.817	2388.58
737.007	2338.21
737.196	2388.97
737.386	2343.05
737.576	2357.97
737.765	2413.77
737.955	2400.21
738.144	2509.48
738.334	2448.64
738.524	2398.27
738.713	2472.86
738.903	2462.59
739.092	2501.54
739.282	2505.41
739.471	2508.12
739.661	2527.69
739.85	2541.25
740.04	2517.62
740.229	2584.27
740.419	2617.78
740.608	2626.11
740.797	2598.02
740.987	2673.97
741.176	2655.95
741.365	2626.7
741.555	2583.88
741.744	2700.71
741.933	2663.12
742.123	2673
742.312	2685.59
742.501	2775.49
742.69	2750.31
742.88	2685.4
743.069	2827.81
743.258	2775.3
743.447	2818.51
743.636	2795.45
743.825	2770.65
744.014	2796.22
744.204	2788.86
744.393	2756.51
744.582	2840.01
744.771	2863.07
744.96	2848.92
745.149	2844.86
745.338	2842.14
745.527	2855.32
745.716	2849.31
745.905	2812.89
746.094	2870.04
746.283	2878.18
746.471	2895.23
746.66	2924.29
746.849	2917.9
747.038	2941.15
747.227	2865.39
747.416	2888.45
747.604	2886.51
747.793	2900.07
747.982	2936.3
748.171	2924.49
748.359	2955.29
748.548	2950.83
748.737	2931.65
748.926	2889.61
749.114	2828.39
749.303	2950.06
749.491	2887.87
749.68	2872.17
749.869	2925.26
750.057	2855.9
750.246	2858.8
750.434	2899.69
750.623	2926.81
750.811	2885.54
751	2963.62
751.188	2898.91
751.377	2920.42
751.565	2898.72
751.754	2912.28
751.942	2851.64
752.131	2925.26
752.319	2858.03
752.507	2868.3
752.696	2907.05
752.884	2934.56
753.072	2902.79
753.261	2887.48
753.449	2926.04
753.637	2875.27
753.825	2971.57
754.014	2903.75
754.202	2878.76
754.39	2938.05
754.578	2915.38
754.766	2886.7
754.955	2891.35
755.143	2963.82
755.331	2900.27
755.519	2890.97
755.707	2894.65
755.895	2855.51
756.083	2910.15
756.271	2885.35
756.459	2880.89
756.647	2941.73
756.835	2897.94
757.023	2828.39
757.211	2861.9
757.399	2851.64
757.587	2859.58
757.775	2767.36
757.963	2821.22
758.151	2852.02
758.339	2770.07
758.526	2815.99
758.714	2833.23
758.902	2704.78
759.09	2633.48
759.278	2444.19
759.465	2255.86
759.653	1943.54
759.841	1786.8
760.028	1532.99
760.216	1311.35
760.404	1207.69
760.591	994.38
760.779	848.29
760.967	717.7
761.154	580.53
761.342	642.72
761.529	667.72
761.717	683.99
761.905	654.74
762.092	743.28
762.28	628.19
762.467	692.32
762.655	637.49
762.842	631.29
763.029	656.48
763.217	636.14
763.404	632.26
763.592	698.33
763.779	618.12
763.966	699.88
764.154	723.13
764.341	768.47
764.528	764.98
764.716	847.32
764.903	904.67
765.09	936.64
765.277	973.64
765.465	1078.85
765.652	1155.38
765.839	1222.42
766.026	1351.06
766.213	1382.45
766.4	1480.1
766.588	1614.56
766.775	1647.88
766.962	1769.56
767.149	1807.34
767.336	1929.4
767.523	1883.68
767.71	2019.1
767.897	2119.27
768.084	2182.43
768.271	2210.91
768.458	2265.55
768.645	2287.25
768.832	2264.97
769.019	2352.93
769.206	2360.49
769.392	2441.86
769.579	2518.39
769.766	2493.2
769.953	2421.32
770.14	2517.23
770.327	2498.82
770.513	2567.8
770.7	2623.21
770.887	2524.4
771.073	2551.52
771.26	2567.99
771.447	2576.13
771.634	2518.39
771.82	2644.33
772.007	2511.22
772.193	2594.15
772.38	2624.37
772.567	2606.74
772.753	2574.19
772.94	2632.7
773.126	2604.8
773.313	2597.63
773.499	2596.28
773.686	2616.23
773.872	2530.79
774.059	2605.77
774.245	2563.92
774.432	2545.13
774.618	2489.52
774.804	2581.55
774.991	2512
775.177	2582.13
775.363	2557.92
775.55	2602.86
775.736	2514.9
775.922	2545.71
776.109	2558.69
776.295	2547.07
776.481	2556.75
776.667	2548.23
776.853	2504.83
777.04	2465.3
777.226	2508.12
777.412	2590.08
777.598	2493.4
777.784	2504.05
777.97	2478.48
778.156	2521.49
778.342	2514.71
778.528	2514.32
778.715	2448.84
778.901	2512.19
779.087	2487.78
779.272	2452.71
779.458	2437.6
779.644	2495.92
779.83	2461.82
780.016	2519.94
780.202	2461.62
780.388	2401.17
780.574	2380.83
780.76	2390.32
780.946	2464.34
781.131	2420.55
781.317	2386.64
781.503	2395.36
781.689	2354.48
781.874	2475.38
782.06	2404.66
782.246	2381.99
782.432	2393.23
782.617	2348.67
782.803	2442.44
782.989	2326.19
783.174	2328.91
783.36	2281.83
783.545	2347.51
783.731	2353.9
783.916	2288.22
784.102	2350.99
784.288	2307.21
784.473	2314.96
784.659	2313.6
784.844	2331.42
785.029	2274.08
785.215	2316.51
785.4	2291.32
785.586	2374.05
785.771	2271.56
785.956	2302.75
786.142	2259.35
786.327	2254.7
786.512	2269.04
786.698	2233.97
786.883	2200.84
787.068	2248.11
787.254	2220.6
787.439	2186.7
787.624	2204.33
787.809	2206.85
787.994	2173.13
788.18	2236.88
788.365	2131.67
788.55	2169.45
788.735	2165.38
788.92	2118.88
789.105	2168.1
789.29	2180.5
789.475	2137.48
789.66	2148.14
789.845	2102.8
790.03	2085.95
790.215	2171.78
790.4	2160.35
790.585	2147.37
790.77	2119.66
790.955	2038.48
791.14	2063.28
791.325	2168.1
791.51	1994.89
791.695	2109
791.879	2071.22
792.064	2002.83
792.249	2129.93
792.434	2067.54
792.618	2084.4
792.803	2104.55
792.988	2044.29
793.173	2108.42
793.357	2124.5
793.542	2077.23
793.727	2051.07
793.911	2135.16
794.096	2087.69
794.281	2137.68
794.465	2157.63
794.65	2117.33
794.834	2153.37
795.019	2138.26
795.203	2158.21
795.388	2153.18
795.572	2140.2
795.757	2119.85
795.941	2157.83
796.126	2140.97
796.31	2062.89
796.494	2100.28
796.679	2074.32
796.863	2078.97
797.048	2127.6
797.232	2131.48
797.416	2127.8
797.601	2106.68
797.785	2221.38
797.969	2170.03
798.153	2127.99
798.338	2162.67
798.522	2184.56
798.706	2190.18
798.89	2147.17
799.074	2286.86
799.258	2194.45
799.443	2158.02
799.627	2156.28
799.811	2160.54
799.995	2118.69
800.179	2119.47
800.363	2145.82
800.547	2157.25
800.731	2146.59
800.915	2094.47
801.099	2087.5
801.283	2099.9
801.467	2107.84
801.651	2093.5
801.835	2200.45
802.019	2121.79
802.202	2108.23
802.386	2075.87
802.57	2085.17
802.754	2104.93
802.938	2098.54
803.121	2093.89
803.305	2158.99
803.489	2098.54
803.673	2161.7
803.856	2141.36
804.04	2080.91
804.224	2130.32
804.407	2117.53
804.591	2106.48
804.775	2112.49
804.958	2131.67
805.142	2246.95
805.326	2138.65
805.509	2142.13
805.693	2168.48
805.876	2151.05
806.06	2133.42
806.243	2166.35
806.427	2182.82
806.61	2212.66
806.794	2169.65
806.977	2200.26
807.16	2150.27
807.344	2164.22
807.527	2134.97
807.71	2122.57
807.894	2140.2
808.077	2198.71
808.26	2126.05
808.444	2107.26
808.627	2172.55
808.81	2097.77
808.993	2037.51
809.177	2030.15
809.36	2041.77
809.543	2120.24
809.726	1959.24
809.909	2007.48
810.092	1984.42
810.276	2025.89
810.459	1992.37
810.642	1979
810.825	1940.64
811.008	1966.02
811.191	1903.24
811.374	1919.91
811.557	1901.11
811.74	1969.7
811.923	1825.74
812.106	1861.59
812.289	1844.73
812.472	1846.28
812.654	1873.21
812.837	1811.02
813.02	1742.82
813.203	1757.74
813.386	1664.35
813.569	1661.25
813.751	1615.34
813.934	1646.53
814.117	1620.95
814.3	1587.82
814.482	1557.6
814.665	1516.14
814.848	1486.3
815.03	1452.59
815.213	1434.57
815.396	1430.69
815.578	1398.14
815.761	1370.63
815.943	1444.45
816.126	1338.28
816.309	1327.62
816.491	1299.53
816.674	1229.78
816.856	1310.76
817.039	1289.45
817.221	1351.06
817.403	1282.67
817.586	1293.91
817.768	1317.93
817.951	1229.39
818.133	1223.58
818.315	1296.04
818.498	1261.36
818.68	1349.71
818.862	1341.76
819.045	1367.73
819.227	1337.7
819.409	1309.02
819.591	1316.77
819.774	1314.25
819.956	1301.27
820.138	1410.93
820.32	1376.25
820.502	1398.34
820.684	1478.16
820.866	1479.13
821.048	1542.49
821.231	1514.97
821.413	1508.58
821.595	1491.53
821.777	1514.01
821.959	1520.59
822.141	1507.03
822.323	1422.94
822.505	1349.32
822.686	1321.81
822.868	1274.34
823.05	1192
823.232	1156.15
823.414	1119.15
823.596	1186.57
823.778	1156.74
823.96	1208.08
824.141	1202.65
824.323	1189.09
824.505	1274.92
824.687	1324.13
824.868	1330.72
825.05	1446
825.232	1447.94
825.413	1524.27
825.595	1450.46
825.777	1446.19
825.958	1466.92
826.14	1448.33
826.321	1479.71
826.503	1448.33
826.685	1456.08
826.866	1510.52
827.048	1461.89
827.229	1437.67
827.411	1400.86
827.592	1364.63
827.773	1372.57
827.955	1376.06
828.136	1309.02
828.318	1288.1
828.499	1332.27
828.68	1239.27
828.862	1298.95
829.043	1329.95
829.224	1327.23
829.406	1250.12
829.587	1293.52
829.768	1276.86
829.949	1339.83
830.131	1307.08
830.312	1358.62
830.493	1333.24
830.674	1364.63
830.855	1309.02
831.036	1307.66
831.218	1347
831.399	1378.96
831.58	1310.76
831.761	1347.19
831.942	1336.73
832.123	1357.46
832.304	1281.7
832.485	1311.15
832.666	1298.75
832.847	1362.69
833.028	1321.61
833.209	1303.4
833.389	1276.28
833.57	1270.08
833.751	1273.95
833.932	1349.71
834.113	1310.76
834.294	1323.94
834.475	1336.34
834.655	1372.18
834.836	1378.58
835.017	1359.98
835.198	1304.37
835.378	1315.22
835.559	1406.48
835.74	1358.62
835.92	1320.84
836.101	1317.93
836.281	1364.24
836.462	1371.6
836.643	1390.01
836.823	1413.45
837.004	1428.95
837.184	1422.36
837.365	1433.99
837.545	1446.78
837.726	1393.69
837.906	1445.81
838.087	1388.65
838.267	1415
838.448	1348.93
838.628	1406.67
838.808	1384.39
838.989	1454.91
839.169	1362.3
839.349	1418.29
839.53	1415.39
839.71	1424.69
839.89	1366.37
840.07	1426.43
840.251	1376.83
840.431	1449.88
840.611	1383.61
840.791	1404.15
840.971	1402.6
841.151	1364.43
841.332	1335.95
841.512	1413.84
841.692	1325.1
841.872	1396.21
842.052	1351.45
842.232	1407.25
842.412	1348.35
842.592	1360.95
842.772	1373.15
842.952	1392.33
843.132	1362.5
843.312	1350.48
843.492	1308.05
843.672	1396.79
843.851	1300.3
844.031	1346.61
844.211	1345.83
844.391	1301.27
844.571	1334.6
844.751	1393.11
844.93	1329.75
845.11	1303.21
845.29	1342.93
845.47	1402.6
845.649	1337.31
845.829	1371.02
846.009	1324.33
846.188	1380.9
846.368	1350.48
846.547	1338.47
846.727	1383.61
846.907	1254.38
847.086	1330.53
847.266	1377.99
847.445	1355.91
847.625	1307.08
847.804	1312.51
847.984	1312.9
848.163	1305.92
848.343	1278.8
848.522	1353
848.701	1320.06
848.881	1311.73
849.06	1304.18
849.239	1288.87
849.419	1280.15
849.598	1253.42
849.777	1227.65
849.957	1265.04
850.136	1182.31
850.315	1201.49
850.494	1217.57
850.674	1182.12
850.853	1227.07
851.032	1223.38
851.211	1279.96
851.39	1215.83
851.569	1202.46
851.748	1178.63
851.927	1246.44
852.107	1225.52
852.286	1201.49
852.465	1164.1
852.644	1235.78
852.823	1201.49
853.002	1201.1
853.181	1216.41
853.359	1228.42
853.538	1148.02
853.717	1232.49
853.896	1113.92
854.075	1079.62
854.254	1053.27
854.433	1018.01
854.611	1073.81
854.79	1051.92
854.969	1094.93
855.148	1081.95
855.327	1055.02
855.505	1093.38
855.684	1095.9
855.863	1078.27
856.041	1078.07
856.22	1116.24
856.399	1119.92
856.577	1174.56
856.756	1139.49
856.934	1286.55
857.113	1253.8
857.291	1181.15
857.47	1143.37
857.648	1167.2
857.827	1168.75
858.005	1218.35
858.184	1099.39
858.362	1264.07
858.541	1160.03
858.719	1132.71
858.898	1135.42
859.076	1190.64
859.254	1218.15
859.433	1153.44
859.611	1121.28
859.789	1086.79
859.967	1201.68
860.146	1236.95
860.324	1096.67
860.502	1157.32
860.68	1077.88
860.859	1108.1
861.037	1123.02
861.215	1128.84
861.393	1128.45
861.571	1135.81
861.749	1129.8
861.927	1148.21
862.105	1096.87
862.283	1100.74
862.461	1076.14
862.639	1090.67
862.817	1093.38
862.995	1119.73
863.173	1079.24
863.351	1054.82
863.529	1084.47
863.707	1101.13
863.885	1112.17
864.063	1030.02
864.241	1074.2
864.418	1139.69
864.596	1060.25
864.774	1037
864.952	1078.07
865.129	1079.24
865.307	1037
865.485	1008.91
865.663	1085.82
865.84	984.49
866.018	1013.36
866.196	906.22
866.373	921.72
866.551	910.48
866.728	867.08
866.906	880.06
867.084	890.53
867.261	955.24
867.439	954.66
867.616	1008.71
867.794	970.16
867.971	985.46
868.149	982.75
868.326	1025.18
868.503	978.29
868.681	1018.59
868.858	994.96
869.035	931.02
869.213	1004.26
869.39	983.53
869.567	1072.84
869.745	975.39
869.922	991.28
870.099	985.08
870.276	1030.22
870.454	996.31
870.631	1012.78
870.808	978.1
870.985	1009.88
871.162	1047.07
871.339	1011.81
871.517	934.89
871.694	915.33
871.871	964.54
872.048	971.71
872.225	951.56
872.402	969.58
872.579	935.48
872.756	1009.68
872.933	949.62
873.11	926.76
873.287	959.11
873.463	950.39
873.64	952.14
873.817	912.03
873.994	982.75
874.171	924.63
874.348	962.79
874.524	887.81
874.701	918.04
874.878	880.65
875.055	960.66
875.231	924.43
875.408	948.65
875.585	882.97
875.762	941.09
875.938	903.12
876.115	912.23
876.291	868.25
876.468	877.74
876.645	854.3
876.821	857.2
876.998	911.45
877.174	910.29
877.351	882.58
877.527	853.71
877.704	897.11
877.88	893.24
878.057	888.4
878.233	923.27
878.409	871.73
878.586	912.03
878.762	859.72
878.938	855.07
879.115	802.95
879.291	875.41
879.467	807.6
879.644	849.65
879.82	885.1
879.996	840.54
880.172	810.9
880.349	859.14
880.525	868.05
880.701	818.84
880.877	822.52
881.053	824.27
881.229	853.33
881.405	872.51
881.581	819.03
881.757	796.37
881.933	868.44
882.109	878.13
882.285	845.19
882.461	812.06
882.637	829.5
882.813	799.27
882.989	804.5
883.165	878.51
883.341	810.7
883.517	835.89
883.693	806.25
883.869	868.63
884.044	822.13
884.22	863.21
884.396	870.96
884.572	846.74
884.747	855.26
884.923	856.23
885.099	840.73
885.275	884.13
885.45	807.22
885.626	812.83
885.801	811.48
885.977	812.25
886.153	759.75
886.328	846.74
886.504	805.28
886.679	861.46
886.855	805.67
887.03	859.53
887.206	843.25
887.381	840.35
887.557	840.54
887.732	836.67
887.908	844.8
888.083	866.31
888.258	812.83
888.434	809.15
888.609	819.23
888.784	855.07
888.96	829.3
889.135	799.08
889.31	795.59
889.485	822.52
889.661	818.07
889.836	848.87
890.011	844.61
890.186	759.36
890.361	826.78
890.537	821.94
890.712	814.77
890.887	823.3
891.062	795.4
891.237	860.3
891.412	792.3
891.587	852.36
891.762	838.6
891.937	842.09
892.112	781.64
892.287	793.85
892.462	754.13
892.637	739.6
892.812	765.17
892.987	773.31
893.161	733.2
893.336	718.48
893.511	727.59
893.686	768.08
893.861	755.87
894.035	756.84
894.21	747.35
894.385	702.2
894.56	716.35
894.734	696.2
894.909	670.04
895.084	661.91
895.258	663.65
895.433	676.82
895.608	610.17
895.782	613.08
895.957	613.86
896.131	620.44
896.306	581.5
896.48	565.81
896.655	562.9
896.829	555.73
897.004	508.84
897.178	540.62
897.353	519.5
897.527	555.93
897.701	561.16
897.876	511.17
898.05	584.41
898.224	552.24
898.399	568.91
898.573	507.88
898.747	456.73
898.921	523.96
899.096	406.74
899.27	459.25
899.444	443.75
899.618	437.16
899.792	490.63
899.967	463.9
900.141	502.64
900.315	448.59
900.489	467
900.663	486.37
900.837	460.21
901.011	411.2
901.185	501.87
901.359	456.92
901.533	466.41
901.707	454.98
901.881	451.88
902.055	417.98
902.229	453.24
902.403	510.39
902.576	447.62
902.75	461.38
902.924	566.39
903.098	480.17
903.272	526.48
903.446	576.66
903.619	535.39
903.793	570.65
903.967	560.58
904.14	612.69
904.314	570.65
904.488	565.61
904.661	662.1
904.835	620.64
905.009	597.39
905.182	668.88
905.356	625.87
905.529	592.74
905.703	582.28
905.876	564.45
906.05	513.49
906.223	524.54
906.397	481.72
906.57	482.69
906.744	485.21
906.917	466.41
907.09	499.74
907.264	470.48
907.437	454.98
907.61	397.05
907.784	456.15
907.957	477.07
908.13	394.34
908.304	451.3
908.477	430.18
908.65	397.83
908.823	398.6
908.996	456.15
909.17	398.41
909.343	434.64
909.516	434.06
909.689	381.75
909.862	397.25
910.035	410.61
910.208	372.45
910.381	389.5
910.554	454.21
910.727	386.78
910.9	401.7
911.073	349.78
911.246	489.08
911.419	443.16
911.592	420.69
911.765	421.08
911.938	384.27
912.11	402.28
912.283	402.87
912.456	440.45
912.629	427.66
912.802	383.49
912.974	340.67
913.147	328.08
913.32	297.47
913.493	320.72
913.665	356.56
913.838	336.02
914.01	327.69
914.183	384.27
914.356	356.17
914.528	395.5
914.701	425.15
914.873	405
915.046	353.27
915.218	320.33
915.391	276.93
915.563	285.26
915.736	327.69
915.908	383.68
916.081	342.03
916.253	352.49
916.425	356.56
916.598	369.54
916.77	353.85
916.942	339.7
917.115	264.14
917.287	351.52
917.459	305.8
917.632	291.07
917.804	266.47
917.976	332.15
918.148	314.9
918.32	338.93
918.493	349.2
918.665	397.44
918.837	362.18
919.009	377.48
919.181	412.36
919.353	390.66
919.525	362.95
919.697	360.82
919.869	389.11
920.041	424.18
920.213	451.69
920.385	417.2
920.557	385.62
920.729	393.76
920.901	393.18
921.073	391.24
921.244	367.02
921.416	407.71
921.588	380.58
921.76	385.82
921.932	431.73
922.103	338.93
922.275	393.18
922.447	388.53
922.619	293.98
922.79	337.38
922.962	346.87
923.134	376.32
923.305	314.32
923.477	297.47
923.648	287.78
923.82	329.63
923.991	289.91
924.163	291.07
924.335	303.86
924.506	303.47
924.677	359.08
924.849	294.56
925.02	333.5
925.192	351.13
925.363	332.15
925.535	334.86
925.706	342.03
925.877	360.05
926.049	316.45
926.22	331.37
926.391	323.43
926.562	353.27
926.734	291.46
926.905	352.68
927.076	236.82
927.247	287.2
927.419	253.1
927.59	256.59
927.761	266.27
927.932	259.69
928.103	265.11
928.274	218.03
928.445	237.6
928.616	238.95
928.787	196.91
928.958	258.91
929.129	218.81
929.3	217.06
929.471	194.2
929.642	149.44
929.813	95.39
929.984	204.66
930.155	135.3
930.326	182.77
930.496	142.47
930.667	64
930.838	153.9
931.009	100.62
931.18	128.13
931.35	137.43
931.521	137.04
931.692	99.84
931.863	45.21
932.033	108.18
932.204	80.86
932.374	101.98
932.545	65.94
932.716	130.07
932.886	114.96
933.057	45.6
933.227	49.08
933.398	128.91
933.568	41.72
933.739	6.46
933.909	14.79
934.08	73.3
934.25	1.61
934.421	11.88
934.591	60.13
934.761	14.21
934.932	-6.14
935.102	23.31
935.272	1.03
935.443	41.33
935.613	10.33
935.783	50.44
935.953	-9.82
936.123	157
936.294	-17.95
936.464	27.38
936.634	48.11
936.804	-18.92
936.974	6.85
937.144	63.42
937.314	27
937.484	-8.65
937.655	-5.75
937.825	46.18
937.995	5.49
938.165	95.39
938.334	37.85
938.504	40.36
938.674	27.58
938.844	49.47
939.014	103.33
939.184	60.51
939.354	129.1
939.524	129.1
939.694	73.49
939.863	74.08
940.033	92.68
940.203	95.19
940.373	100.62
940.542	108.18
940.712	101.01
940.882	108.56
941.051	134.14
941.221	83.57
941.391	116.7
941.56	53.93
941.73	16.73
941.899	168.82
942.069	56.25
942.238	105.66
942.408	55.28
942.577	123.87
942.747	56.25
942.916	34.36
943.086	43.08
943.255	96.94
943.425	66.71
943.594	56.83
943.763	-17.18
943.933	31.65
944.102	-12.34
944.271	52.57
944.441	70.78
944.61	50.44
944.779	57.22
944.948	121.16
945.117	26.61
945.287	43.66
945.456	10.91
945.625	22.54
945.794	49.08
945.963	10.14
946.132	78.92
946.301	36.49
946.47	86.09
946.639	1.81
946.808	46.56
946.977	66.52
947.146	92.29
947.315	35.71
947.484	65.55
947.653	48.5
947.822	33
947.991	27
948.16	94.03
948.329	113.41
948.498	40.56
948.666	63.81
948.835	81.44
949.004	18.08
949.173	-0.71
949.341	60.13
949.51	71.56
949.679	88.99
949.847	83.38
950.016	129.1
950.185	90.54
950.353	15.76
950.522	18.47
950.69	120.96
950.859	22.15
951.028	74.27
951.196	59.74
951.365	28.55
951.533	39.4
951.701	44.24
951.87	68.65
952.038	24.48
952.207	70.39
952.375	121.93
952.543	51.99
952.712	31.26
952.88	33.39
953.048	120.38
953.217	71.17
953.385	62.06
953.553	114.18
953.721	-1.49
953.89	27.38
954.058	5.49
954.226	14.79
954.394	52.38
954.562	19.44
954.73	42.88
954.898	45.6
955.067	72.91
955.235	38.23
955.403	85.89
955.571	107.79
955.739	77.95
955.907	30.68
956.075	34.94
956.243	49.86
956.41	66.91
956.578	12.08
956.746	2
956.914	44.05
957.082	41.33
957.25	86.67
957.418	24.48
957.585	63.23
957.753	102.36
957.921	30.1
958.089	54.7
958.256	73.88
958.424	57.8
958.592	82.99
958.759	43.66
958.927	80.47
959.095	31.65
959.262	69.23
959.43	31.84
959.597	15.18
959.765	56.83
959.932	37.65
960.1	88.8
960.267	57.22
960.435	61.29
960.602	103.33
960.77	40.75
960.937	27.58
961.104	47.73
961.272	15.95
961.439	31.45
961.606	72.91
961.774	76.21
961.941	76.79
962.108	70.98
962.275	72.33
962.443	95.19
962.61	81.05
962.777	137.63
962.944	56.83
963.111	96.55
963.278	107.79
963.446	84.73
963.613	70.01
963.78	82.79
963.947	93.64
964.114	66.13
964.281	149.25
964.448	109.34
964.615	70.01
964.782	77.18
964.949	111.86
965.116	87.44
965.282	106.04
965.449	82.99
965.616	58.38
965.783	82.79
965.95	58.38
966.117	19.83
966.283	76.59
966.45	86.86
966.617	86.28
966.784	104.49
966.95	128.52
967.117	113.41
967.284	60.51
967.45	60.9
967.617	125.03
967.784	98.68
967.95	136.85
968.117	51.99
968.283	121.93
968.45	154.09
968.616	76.79
968.783	125.81
968.949	93.06
969.116	144.21
969.282	96.74
969.449	96.74
969.615	109.73
969.781	61.29
969.948	56.06
970.114	32.23
970.28	162.42
970.447	80.86
970.613	122.9
970.779	82.79
970.945	113.6
971.112	95.39
971.278	64.97
971.444	72.53
971.61	119.22
971.776	70.2
971.942	98.29
972.108	119.03
972.275	68.46
972.441	105.66
972.607	153.51
972.773	64.19
972.939	113.41
973.105	79.89
973.271	47.92
973.437	58.19
973.602	55.28
973.768	83.18
973.934	74.27
974.1	100.62
974.266	-11.75
974.432	82.99
974.598	67.88
974.763	89.38
974.929	74.66
975.095	125.42
975.261	65.16
975.426	39.59
975.592	63.23
975.758	100.04
975.923	49.66
976.089	55.67
976.255	118.06
976.42	77.76
976.586	108.76
976.751	70.78
976.917	170.37
977.082	75.63
977.248	52.76
977.413	30.1
977.579	65.55
977.744	71.94
977.91	18.08
978.075	81.05
978.24	97.33
978.406	79.31
978.571	49.28
978.736	56.25
978.902	93.84
979.067	37.65
979.232	29.9
979.397	83.18
979.563	144.02
979.728	52.38
979.893	58.96
980.058	48.5
980.223	111.47
980.388	84.34
980.554	91.32
980.719	61.68
980.884	96.55
981.049	93.26
981.214	50.25
981.379	103.53
981.544	46.37
981.709	64.58
981.874	81.05
982.039	74.27
982.204	85.51
982.368	66.13
982.533	50.05
982.698	111.47
982.863	109.92
983.028	72.91
983.193	86.09
983.357	93.26
983.522	73.3
983.687	56.25
983.852	66.71
984.016	61.68
984.181	69.43
984.346	81.05
984.51	97.33
984.675	68.46
984.839	89.96
985.004	62.64
985.168	121.16
985.333	82.79
985.498	57.61
985.662	113.79
985.827	86.28
985.991	81.05
986.155	69.43
986.32	99.07
986.484	147.51
986.649	88.22
986.813	49.66
986.977	79.69
987.142	114.96
987.306	35.13
987.47	67.88
987.634	76.21
987.799	64.97
987.963	75.82
988.127	87.06
988.291	142.28
988.455	105.27
988.62	66.71
988.784	83.18
988.948	97.71
989.112	41.33
989.276	88.22
989.44	59.93
989.604	60.13
989.768	58.96
989.932	132.39
990.096	44.24
990.26	33.39
990.424	50.44
990.588	71.56
990.752	122.32
990.915	101.98
991.079	46.95
991.243	74.66
991.407	100.23
991.571	68.26
991.734	101.01
991.898	115.15
992.062	152.93
992.226	88.41
992.389	25.64
992.553	0.06
992.717	31.45
992.88	51.02
993.044	69.04
993.207	70.98
993.371	100.43
993.535	62.26
993.698	52.18
993.862	106.82
994.025	106.24
994.189	77.95
994.352	86.86
994.515	76.21
994.679	82.6
994.842	71.94
995.006	66.33
995.169	45.21
995.332	47.92
995.496	86.48
995.659	19.44
995.822	54.7
995.985	50.25
996.149	94.61
996.312	67.68
996.475	101.59
996.638	31.65
996.801	87.44
996.964	128.33
997.128	50.44
997.291	81.83
997.454	71.36
997.617	33
997.78	72.53
997.943	42.3
998.106	79.11
998.269	54.9
998.432	31.84
998.595	53.93
998.758	3.55
998.92	38.23
999.083	1.03
999.246	59.35
999.409	38.04
999.572	10.53
999.735	40.95
999.897	64.78
1000.06	38.81
1000.223	20.6
1000.386	61.09
1000.548	63.42
1000.711	62.84
1000.874	75.24
1001.036	13.43
1001.199	90.16
1001.361	31.26
1001.524	51.02
1001.687	64.19
1001.849	3.55
1002.012	59.16
1002.174	72.33
1002.337	82.99
1002.499	61.29
1002.661	70.59
1002.824	21.57
1002.986	4.71
1003.149	50.83
1003.311	26.03
1003.473	89.77
1003.636	20.41
1003.798	65.94
1003.96	74.46
1004.123	67.88
1004.285	47.92
1004.447	30.68
1004.609	58.77
1004.771	103.53
1004.933	41.14
1005.096	23.51
1005.258	-7.88
1005.42	55.86
1005.582	82.02
1005.744	50.25
1005.906	48.31
1006.068	64.39
1006.23	0.84
1006.392	-20.09
1006.554	9.95
1006.716	97.91
1006.878	47.73
1007.04	2.78
1007.202	31.84
1007.363	58.77
1007.525	58.19
1007.687	50.44
1007.849	66.71
1008.011	-5.17
1008.172	25.64
1008.334	31.06
1008.496	57.22
1008.658	-0.13
1008.819	13.63
1008.981	-16.4
1009.143	-10.2
1009.304	45.21
1009.466	80.28
1009.627	69.04
1009.789	126.78
1009.95	43.08
1010.112	32.23
1010.273	36.49
1010.435	4.13
1010.596	50.44
1010.758	29.9
1010.919	37.26
1011.081	14.21
1011.242	52.57
1011.403	56.64
1011.565	48.11
1011.726	54.9
1011.887	30.87
1012.049	41.72
1012.21	89.19
1012.371	58.77
1012.532	4.52
1012.693	33.2
1012.855	16.34
1013.016	42.69
1013.177	63.61
1013.338	20.21
1013.499	71.94
1013.66	79.69
1013.821	55.67
1013.982	41.14
1014.143	19.63
1014.304	15.76
1014.465	35.33
1014.626	35.33
1014.787	48.89
1014.948	111.08
1015.109	-11.17
1015.27	39.78
1015.431	24.09
1015.592	10.91
1015.752	51.6
1015.913	44.43
1016.074	39.4
1016.235	23.31
1016.395	22.15
1016.556	23.7
1016.717	15.95
1016.877	55.28
1017.038	25.64
1017.199	20.21
1017.359	19.05
1017.52	29.51
1017.681	12.66
1017.841	34.36
1018.002	10.33
1018.162	15.95
1018.323	84.93
1018.483	52.38
1018.644	28.16
1018.804	15.95
1018.964	-15.05
1019.125	1.81
1019.285	50.83
1019.446	13.24
1019.606	-25.9
1019.766	-27.64
1019.926	50.83
1020.087	55.09
1020.247	-16.79
1020.407	40.75
1020.567	59.16
1020.728	11.5
1020.888	8.59
1021.048	16.53
1021.208	-13.5
1021.368	5.1
1021.528	85.7
1021.688	62.45
1021.848	40.75
1022.008	62.84
1022.168	12.85
1022.328	32.42
1022.488	39.01
1022.648	-0.13
1022.808	32.42
1022.968	39.01
1023.128	-4.97
1023.288	5.88
1023.448	19.63
1023.608	49.08
1023.767	57.61
1023.927	-5.17
1024.087	-15.05
1024.247	0.26
1024.406	2.97
1024.566	-2.07
1024.726	-28.61
1024.885	9.17
1025.045	55.86
1025.205	10.72
1025.364	29.71
1025.524	1.42
1025.683	36.68
1025.843	25.64
1026.003	43.08
1026.162	67.1
1026.321	52.96
1026.481	42.11
1026.64	-0.71
1026.8	-5.36
1026.959	21.57
1027.119	44.24
1027.278	11.69
1027.437	-23.77
1027.597	7.04
1027.756	35.91
1027.915	25.06
1028.074	26.03
1028.234	0.45
1028.393	30.1
1028.552	-18.15
1028.711	-51.47
1028.87	59.16
1029.03	-35.2
1029.189	28.16
1029.348	-60
1029.507	-4.59
1029.666	-0.71
1029.825	11.3
1029.984	-30.55
1030.143	25.06
1030.302	-2.65
1030.461	-41.2
1030.62	30.87
1030.779	19.63
1030.938	-16.79
1031.097	-14.85
1031.255	38.43
1031.414	38.23
1031.573	44.43
1031.732	-44.11
1031.891	-7.1
1032.049	54.51
1032.208	38.62
1032.367	-6.72
1032.525	4.91
1032.684	-1.1
1032.843	12.46
1033.001	-56.7
1033.16	153.51
1033.319	44.82
1033.477	35.91
1033.636	10.53
1033.794	-34.62
1033.953	52.76
1034.111	45.6
1034.27	-3.42
1034.428	24.67
1034.587	-36.94
1034.745	10.14
1034.903	5.68
1035.062	23.51
1035.22	-15.24
1035.378	28.93
1035.537	-7.49
1035.695	37.26
1035.853	18.86
1036.011	37.85
1036.17	26.41
1036.328	-28.22
1036.486	3.36
1036.644	-0.52
1036.802	-68.13
1036.96	-1.29
1037.119	10.72
1037.277	-5.17
1037.435	-37.91
1037.593	-32.48
1037.751	6.26
1037.909	15.18
1038.067	15.18
