Data from oakcork_FLMT105791__236__17-33-07-055.txt Node

Date: Mon Mar 20 17:33:07 GMT 2023
User: antho
Spectrometer: FLMT10579
Trigger mode: 0
Integration Time (sec): 1.000000E-1
Scans to average: 10
Electric dark correction enabled: true
Nonlinearity correction enabled: false
Boxcar width: 0
XAxis mode: Wavelengths
Number of Pixels in Spectrum: 3648
>>>>>Begin Spectral Data<<<<<
345.248	-141.89
345.464	-141.89
345.681	-141.89
345.898	-148.67
346.114	-151.77
346.331	-37.65
346.548	12.14
346.764	19.7
346.981	-15.37
347.197	-7.23
347.414	23.77
347.631	-14.79
347.847	40.62
348.064	0.13
348.28	17.95
348.497	-29.32
348.713	-9.95
348.93	46.63
349.146	25.7
349.363	-16.34
349.579	6.91
349.796	11.75
350.012	-34.36
350.229	29.19
350.445	2.26
350.661	-12.66
350.878	-9.95
351.094	40.82
351.311	49.34
351.527	9.62
351.743	11.17
351.96	27.64
352.176	44.5
352.392	4.2
352.609	8.07
352.825	2.45
353.041	0.32
353.257	13.11
353.474	23.77
353.69	6.33
353.906	30.74
354.122	-0.06
354.339	53.41
354.555	18.73
354.771	10.4
354.987	47.21
355.203	69.68
355.42	14.08
355.636	28.8
355.852	3.04
356.068	18.73
356.284	-45.01
356.5	60.38
356.716	-6.85
356.932	-4.13
357.148	7.88
357.364	11.17
357.58	48.37
357.796	66
358.012	35
358.228	29.19
358.444	-46.56
358.66	50.31
358.876	14.66
359.092	-16.73
359.308	9.43
359.524	49.73
359.74	7.1
359.956	-17.89
360.172	27.45
360.388	23.96
360.604	0.9
360.819	70.27
361.035	41.4
361.251	41.2
361.467	-31.26
361.683	37.52
361.898	14.66
362.114	36.75
362.33	36.36
362.546	40.04
362.762	16.21
362.977	20.47
363.193	-15.95
363.409	51.47
363.624	-6.26
363.84	10.2
364.056	19.7
364.271	55.35
364.487	29.38
364.703	4.97
364.918	-9.36
365.134	3.04
365.35	15.05
365.565	93.32
365.781	46.63
365.996	70.65
366.212	62.52
366.427	32.68
366.643	25.12
366.858	19.31
367.074	-14.21
367.289	94.87
367.505	96.62
367.72	-20.02
367.936	20.09
368.151	65.62
368.367	49.34
368.582	47.6
368.798	8.27
369.013	68.72
369.228	25.51
369.444	16.4
369.659	72.98
369.874	44.3
370.09	84.22
370.305	-38.62
370.52	8.85
370.736	59.61
370.951	19.7
371.166	69.1
371.381	99.13
371.597	39.07
371.812	-18.47
372.027	-17.31
372.242	13.5
372.458	108.63
372.673	30.74
372.888	26.48
373.103	61.74
373.318	107.85
373.533	40.43
373.749	30.74
373.964	-0.65
374.179	80.34
374.394	-6.07
374.609	80.53
374.824	4
375.039	49.34
375.254	6.52
375.469	75.88
375.684	22.41
375.899	69.3
376.114	38.88
376.329	32.68
376.544	74.92
376.759	70.46
376.974	22.22
377.189	16.4
377.404	27.64
377.619	74.33
377.834	-11.88
378.049	-8.01
378.264	-3.75
378.478	44.69
378.693	3.62
378.908	74.53
379.123	28.8
379.338	70.46
379.553	52.83
379.767	55.54
379.982	58.64
380.197	67.75
380.412	47.21
380.626	39.65
380.841	103.78
381.056	41.78
381.271	99.52
381.485	37.13
381.7	10.59
381.915	42.37
382.129	22.02
382.344	66.97
382.559	29.19
382.773	70.27
382.988	2.26
383.202	26.09
383.417	2.07
383.632	114.44
383.846	25.32
384.061	16.21
384.275	50.5
384.49	55.15
384.704	38.68
384.919	41.78
385.133	46.43
385.348	65.23
385.562	22.99
385.777	70.65
385.991	66.97
386.206	33.84
386.42	27.06
386.634	66.2
386.849	60.58
387.063	53.02
387.277	30.35
387.492	25.51
387.706	22.99
387.92	37.72
388.135	84.99
388.349	68.52
388.563	56.32
388.778	75.5
388.992	79.18
389.206	77.63
389.42	128
389.635	60.38
389.849	94.48
390.063	91.77
390.277	77.43
390.491	109.21
390.706	76.27
390.92	80.73
391.134	64.65
391.348	100.49
391.562	28.42
391.776	57.48
391.99	40.62
392.205	92.16
392.419	49.15
392.633	66.39
392.847	89.06
393.061	47.6
393.275	111.73
393.489	47.21
393.703	52.25
393.917	70.65
394.131	35.58
394.345	55.73
394.559	86.35
394.773	57.67
394.986	84.99
395.2	85.77
395.414	90.8
395.628	32.87
395.842	102.04
396.056	70.07
396.27	35.39
396.484	70.85
396.697	76.27
396.911	96.03
397.125	74.33
397.339	91
397.553	93.52
397.766	136.53
397.98	134.2
398.194	136.14
398.408	115.99
398.621	112.12
398.835	103.59
399.049	107.85
399.262	137.5
399.476	157.45
399.69	150.67
399.903	186.32
400.117	96.42
400.331	122.38
400.544	95.45
400.758	227.78
400.971	139.82
401.185	134.4
401.398	89.64
401.612	174.31
401.826	117.93
402.039	159.39
402.253	108.82
402.466	137.5
402.68	140.6
402.893	125.68
403.106	134.98
403.32	103.98
403.533	150.48
403.747	122.96
403.96	142.92
404.174	181.09
404.387	104.56
404.6	163.65
404.814	162.3
405.027	121.8
405.24	144.47
405.454	131.1
405.667	183.41
405.88	106.5
406.094	158.03
406.307	160.16
406.52	151.45
406.733	99.33
406.947	97.39
407.16	205.31
407.373	150.67
407.586	117.73
407.799	111.53
408.012	178.96
408.226	179.93
408.439	199.69
408.652	129.75
408.865	156.68
409.078	212.28
409.291	186.32
409.504	158.42
409.717	182.45
409.93	174.31
410.143	172.76
410.357	148.15
410.57	138.46
410.783	168.5
410.996	176.44
411.209	154.74
411.421	220.42
411.634	176.83
411.847	153.19
412.06	181.67
412.273	187.87
412.486	176.05
412.699	245.03
412.912	183.22
413.125	212.28
413.338	170.24
413.55	227.2
413.763	187.87
413.976	207.05
414.189	143.31
414.402	179.15
414.615	227.98
414.827	168.69
415.04	210.34
415.253	208.41
415.466	214.03
415.678	248.9
415.891	206.28
416.104	190.39
416.316	163.65
416.529	165.2
416.742	215.96
416.954	237.08
417.167	205.89
417.38	206.08
417.592	226.04
417.805	184
418.017	166.36
418.23	225.07
418.442	174.5
418.655	202.01
418.868	198.72
419.08	227.01
419.293	236.89
419.505	214.61
419.718	222.36
419.93	240.18
420.142	206.66
420.355	232.04
420.567	254.13
420.78	235.34
420.992	201.63
421.205	296.56
421.417	165.98
421.629	201.82
421.842	207.44
422.054	189.42
422.266	228.17
422.479	222.74
422.691	192.13
422.903	227.39
423.115	211.12
423.328	217.51
423.54	241.93
423.752	215.77
423.964	209.38
424.177	224.49
424.389	216.35
424.601	328.53
424.813	211.12
425.025	264.01
425.238	255.49
425.45	221.78
425.662	205.31
425.874	504.45
426.086	222.55
426.298	258.01
426.51	255.49
426.722	243.67
426.934	232.24
427.146	254.91
427.358	177.21
427.57	260.53
427.782	228.36
427.994	242.51
428.206	218.87
428.418	210.15
428.63	272.54
428.842	264.4
429.054	256.46
429.266	301.41
429.478	196.01
429.69	244.25
429.902	194.85
430.114	261.49
430.325	219.26
430.537	178.18
430.749	204.73
430.961	152.03
431.173	209.96
431.384	207.63
431.596	178.18
431.808	224.29
432.02	233.21
432.231	261.69
432.443	304.51
432.655	270.41
432.867	247.16
433.078	265.95
433.29	342.87
433.502	335.12
433.713	326.98
433.925	287.07
434.136	311.48
434.348	258.39
434.56	222.55
434.771	361.66
434.983	236.31
435.194	275.64
435.406	289.01
435.617	332.02
435.829	381.81
436.04	330.08
436.252	339.77
436.463	378.32
436.675	365.54
436.886	324.66
437.098	335.7
437.309	363.99
437.521	330.47
437.732	347.91
437.943	338.8
438.155	330.27
438.366	286.29
438.578	375.22
438.789	319.81
439	338.8
439.211	346.74
439.423	317.29
439.634	342.29
439.845	353.52
440.057	360.31
440.268	376.39
440.479	312.45
440.69	372.51
440.902	338.41
441.113	363.21
441.324	328.92
441.535	364.37
441.746	426.37
441.957	341.12
442.168	350.42
442.38	394.4
442.591	398.86
442.802	345.19
443.013	361.66
443.224	396.92
443.435	361.66
443.646	366.12
443.857	387.04
444.068	351.78
444.279	391.89
444.49	448.65
444.701	396.92
444.912	484.5
445.123	422.89
445.334	417.27
445.545	412.81
445.756	403.12
445.967	373.87
446.178	403.9
446.388	398.09
446.599	397.12
446.81	425.6
447.021	370.38
447.232	441.49
447.443	421.92
447.653	384.72
447.864	434.12
448.075	411.84
448.286	447.1
448.496	455.63
448.707	464.15
448.918	433.15
449.129	491.86
449.339	416.1
449.55	444.59
449.761	436.25
449.971	471.13
450.182	430.64
450.393	464.35
450.603	424.05
450.814	488.76
451.024	465.9
451.235	480.23
451.446	542.23
451.656	501.74
451.867	485.47
452.077	466.87
452.288	520.92
452.498	518.98
452.709	465.9
452.919	444.2
453.13	440.52
453.34	476.36
453.55	406.22
453.761	475
453.971	481.78
454.182	478.1
454.392	462.99
454.602	512.4
454.813	505.81
455.023	520.73
455.233	444.39
455.444	473.65
455.654	422.5
455.864	465.9
456.075	477.91
456.285	466.48
456.495	478.49
456.705	513.37
456.916	523.05
457.126	554.44
457.336	491.28
457.546	473.26
457.756	477.33
457.967	522.47
458.177	459.31
458.387	500
458.597	453.5
458.807	475.78
459.017	482.56
459.227	474.81
459.437	467.64
459.647	543.4
459.857	530.42
460.068	498.45
460.278	540.1
460.488	526.93
460.698	562.38
460.908	515.3
461.117	467.64
461.327	517.24
461.537	501.55
461.747	532.16
461.957	541.46
462.167	650.15
462.377	561.22
462.587	555.21
462.797	580.21
463.007	560.64
463.216	562.38
463.426	588.93
463.636	563.55
463.846	512.4
464.056	508.52
464.265	606.17
464.475	508.33
464.685	552.5
464.895	560.25
465.104	540.3
465.314	570.52
465.524	543.4
465.733	544.95
465.943	618.76
466.153	630.39
466.362	612.95
466.572	587.38
466.782	575.36
466.991	589.51
467.201	637.36
467.41	535.84
467.62	600.16
467.829	577.3
468.039	616.44
468.249	579.24
468.458	591.45
468.668	643.56
468.877	626.32
469.086	657.9
469.296	658.68
469.505	603.65
469.715	679.99
469.924	635.81
470.134	662.94
470.343	671.27
470.552	612.56
470.762	601.71
470.971	602.49
471.18	637.95
471.39	634.85
471.599	623.8
471.808	670.88
472.018	609.27
472.227	678.05
472.436	713.51
472.645	683.67
472.855	653.83
473.064	751.67
473.273	699.94
473.482	704.4
473.691	741.21
473.901	701.88
474.11	711.38
474.319	753.42
474.528	722.03
474.737	803.02
474.946	737.72
475.155	725.91
475.364	772.02
475.573	736.17
475.783	746.25
475.992	772.21
476.201	779.77
476.41	744.89
476.619	720.09
476.828	766.21
477.037	727.46
477.245	750.32
477.454	805.92
477.663	784.61
477.872	748.38
478.081	843.51
478.29	737.14
478.499	896.4
478.708	809.61
478.917	880.32
479.125	805.34
479.334	849.32
479.543	852.81
479.752	853.78
479.961	858.43
480.169	877.03
480.378	855.14
480.587	1001.22
480.796	883.81
481.004	886.14
481.213	909.77
481.422	903.38
481.63	897.95
481.839	950.65
482.048	961.7
482.256	957.05
482.465	956.47
482.674	980.88
482.882	969.83
483.091	1023.5
483.299	988.43
483.508	997.73
483.716	983.2
483.925	982.23
484.134	951.04
484.342	951.43
484.551	1002.77
484.759	985.72
484.967	1003.16
485.176	1008.97
485.384	1039.97
485.593	1010.71
485.801	1000.25
486.01	979.13
486.218	934.57
486.426	852.81
486.635	854.36
486.843	875.29
487.051	926.24
487.26	916.36
487.468	927.79
487.676	1002.58
487.885	965.57
488.093	1023.11
488.301	1049.08
488.509	1032.03
488.717	1070.58
488.926	1040.16
489.134	1050.63
489.342	1045.78
489.55	1046.56
489.758	1058.76
489.967	1075.43
490.175	1153.12
490.383	1094.22
490.591	1207.17
490.799	1101.58
491.007	1162.42
491.215	1178.11
491.423	1126.96
491.631	1138.78
491.839	1162.23
492.047	1179.08
492.255	1071.55
492.463	1037.84
492.671	1132.78
492.879	1155.64
493.087	1153.89
493.295	1158.16
493.503	1170.75
493.711	1219.19
493.919	1231.59
494.127	1206.21
494.334	1201.75
494.542	1173.66
494.75	1196.71
494.958	1185.67
495.166	1259.1
495.374	1239.72
495.581	1233.91
495.789	1235.07
495.997	1284.09
496.205	1190.51
496.412	1241.66
496.62	1225.97
496.828	1253.09
497.035	1242.82
497.243	1292.23
497.451	1276.54
497.658	1239.53
497.866	1267.43
498.074	1324.2
498.281	1215.51
498.489	1337.95
498.696	1267.43
498.904	1238.56
499.112	1206.59
499.319	1298.04
499.527	1265.49
499.734	1335.24
499.942	1235.85
500.149	1218.22
500.357	1318.39
500.564	1233.33
500.771	1284.29
500.979	1220.74
501.186	1202.52
501.394	1260.45
501.601	1261.04
501.808	1240.5
502.016	1238.37
502.223	1249.99
502.43	1266.85
502.638	1277.31
502.845	1242.82
503.052	1345.12
503.26	1264.72
503.467	1329.43
503.674	1313.74
503.881	1315.29
504.089	1340.67
504.296	1294.75
504.503	1268.2
504.71	1247.09
504.917	1247.67
505.125	1299.2
505.332	1298.43
505.539	1314.12
505.746	1424.37
505.953	1383.29
506.16	1360.23
506.367	1448.2
506.574	1445.48
506.781	1432.11
506.988	1353.65
507.195	1356.55
507.402	1387.17
507.609	1363.72
507.816	1351.13
508.023	1335.63
508.23	1349
508.437	1301.53
508.644	1334.66
508.851	1459.82
509.058	1417
509.265	1411.19
509.472	1418.94
509.679	1505.93
509.885	1405.77
510.092	1444.9
510.299	1371.08
510.506	1422.23
510.713	1411
510.92	1435.6
511.126	1456.91
511.333	1471.64
511.54	1465.25
511.746	1511.55
511.953	1489.66
512.16	1529.96
512.367	1476.48
512.573	1478.42
512.78	1498.18
512.987	1480.36
513.193	1476.29
513.4	1358.3
513.606	1464.86
513.813	1476.29
514.02	1436.76
514.226	1531.31
514.433	1491.98
514.639	1443.93
514.846	1435.02
515.052	1421.27
515.259	1474.74
515.465	1489.85
515.672	1449.94
515.878	1573.55
516.085	1504.96
516.291	1528.79
516.497	1472.8
516.704	1468.35
516.91	1425.53
517.117	1352.48
517.323	1324.2
517.529	1333.5
517.736	1334.08
517.942	1388.13
518.148	1386.58
518.354	1417.97
518.561	1398.79
518.767	1390.65
518.973	1458.85
519.179	1477.45
519.386	1449.16
519.592	1434.05
519.798	1421.65
520.004	1559.21
520.21	1512.52
520.417	1564.06
520.623	1568.71
520.829	1580.53
521.035	1609.01
521.241	1578.59
521.447	1653.37
521.653	1710.34
521.859	1602.03
522.065	1634.77
522.271	1714.21
522.477	1621.41
522.683	1693.48
522.889	1651.05
523.095	1673.91
523.301	1623.54
523.507	1638.26
523.713	1658.61
523.919	1576.07
524.125	1720.6
524.331	1672.56
524.537	1732.62
524.742	1730.1
524.948	1756.84
525.154	1758.39
525.36	1811.47
525.566	1730.68
525.772	1762.26
525.977	1706.65
526.183	1765.75
526.389	1770.79
526.595	1710.53
526.8	1681.86
527.006	1622.18
527.212	1594.86
527.417	1585.37
527.623	1596.41
527.829	1657.25
528.034	1684.96
528.24	1712.66
528.446	1692.9
528.651	1803.33
528.857	1765.17
529.062	1843.44
529.268	1817.67
529.473	1856.81
529.679	1822.32
529.884	1899.63
530.09	1873.86
530.295	1858.55
530.501	1890.13
530.706	1875.8
530.912	1863.98
531.117	1853.13
531.323	1875.02
531.528	1889.75
531.733	1919.2
531.939	1885.29
532.144	1893.62
532.35	1895.75
532.555	1955.43
532.76	1887.23
532.966	1873.28
533.171	1850.61
533.376	1800.23
533.581	1811.86
533.787	1878.7
533.992	1930.43
534.197	1893.23
534.402	1944.77
534.607	1889.16
534.813	2021.49
535.018	1923.85
535.223	1913.58
535.428	1956.59
535.633	1988.17
535.838	2010.84
536.043	2035.83
536.249	2063.34
536.454	1987.78
536.659	2029.44
536.864	1988.17
537.069	1982.55
537.274	1980.03
537.479	1990.69
537.684	1973.83
537.889	1951.36
538.094	2067.22
538.299	2021.11
538.504	2036.03
538.708	2035.64
538.913	2073.42
539.118	1990.88
539.323	2072.45
539.528	1982.94
539.733	2031.38
539.938	2051.33
540.142	2051.14
540.347	2008.9
540.552	1983.91
540.757	1977.51
540.962	1994.76
541.166	1942.45
541.371	1945.35
541.576	1992.04
541.781	1895.95
541.985	2035.44
542.19	2013.36
542.395	2075.55
542.599	2122.24
542.804	2050.36
543.008	2083.49
543.213	2051.33
543.418	2012
543.622	2087.76
543.827	2004.64
544.031	2111.39
544.236	2124.18
544.44	2102.09
544.645	2129.8
544.849	2080.2
545.054	2119.72
545.258	2157.31
545.463	2162.93
545.667	2068.19
545.872	2118.17
546.076	2119.72
546.281	2134.45
546.485	2064.12
546.689	2112.75
546.894	2130.77
547.098	2109.26
547.302	2054.82
547.507	2131.93
547.711	2156.15
547.915	2199.94
548.119	2086.79
548.324	2094.73
548.528	2152.85
548.732	2122.82
548.936	2158.28
549.141	2196.25
549.345	2142
549.549	2145.1
549.753	2139.87
549.957	2182.3
550.161	2209.62
550.366	2154.6
550.57	2168.35
550.774	2157.31
550.978	2131.93
551.182	2146.46
551.386	2136.97
551.59	2128.05
551.794	2153.63
551.998	2183.66
552.202	2158.86
552.406	2141.62
552.61	2189.28
552.814	2138.9
553.018	2206.72
553.222	2160.41
553.426	2134.45
553.63	2248.76
553.833	2142.78
554.037	2104.22
554.241	2134.64
554.445	2168.94
554.649	2143.17
554.853	2142.2
555.056	2206.91
555.26	2214.27
555.464	2176.88
555.668	2196.25
555.871	2216.4
556.075	2231.32
556.279	2183.08
556.483	2150.14
556.686	2128.44
556.89	2155.76
557.094	2109.84
557.297	2102.09
557.501	2151.89
557.704	2013.36
557.908	2168.35
558.112	2068.77
558.315	2162.15
558.519	2129.8
558.722	2070.32
558.926	2057.53
559.129	2012.19
559.333	2041.26
559.536	2001.93
559.74	2019.17
559.943	1987.01
560.147	2004.83
560.35	2021.49
560.553	2020.33
560.757	1989.53
560.96	2066.25
561.164	2028.08
561.367	2088.53
561.57	2079.81
561.774	2049.2
561.977	2022.46
562.18	1994.95
562.384	2111.97
562.587	2018.39
562.79	1993.4
562.993	2016.07
563.197	2056.17
563.4	2103.06
563.603	2065.28
563.806	2074
564.009	1996.31
564.212	2072.45
564.416	1982.94
564.619	2018.01
564.822	1922.88
565.025	2012.78
565.228	1987.78
565.431	1995.53
565.634	1932.56
565.837	1940.12
566.04	1909.31
566.243	1939.73
566.446	1847.9
566.649	1963.95
566.852	1882.19
567.055	1931.6
567.258	1929.46
567.461	1963.76
567.664	1968.02
567.867	1877.93
568.07	1924.43
568.273	1937.99
568.475	1955.62
568.678	1895.17
568.881	1905.05
569.084	1857
569.287	1760.9
569.489	1816.32
569.692	1834.92
569.895	1885.48
570.098	1801.2
570.3	1767.88
570.503	1747.92
570.706	1801.78
570.909	1766.33
571.111	1730.68
571.314	1711.11
571.516	1748.12
571.719	1769.04
571.922	1716.92
572.124	1731.07
572.327	1792.68
572.529	1714.99
572.732	1741.34
572.935	1756.06
573.137	1839.37
573.34	1717.5
573.542	1811.86
573.745	1773.5
573.947	1784.54
574.15	1720.22
574.352	1737.85
574.554	1816.7
574.757	1715.57
574.959	1726.03
575.162	1686.7
575.364	1676.82
575.566	1763.42
575.769	1708.2
575.971	1692.7
576.173	1605.13
576.376	1705.88
576.578	1718.28
576.78	1776.02
576.982	1629.16
577.185	1660.35
577.387	1642.52
577.589	1641.94
577.791	1691.35
577.993	1706.65
578.196	1638.84
578.398	1665.58
578.6	1692.51
578.802	1631.09
579.004	1584.21
579.206	1615.21
579.408	1632.84
579.61	1609.2
579.812	1690.77
580.014	1613.07
580.216	1628.19
580.418	1668.68
580.62	1608.04
580.822	1617.92
581.024	1643.88
581.226	1701.23
581.428	1653.96
581.63	1744.05
581.832	1659.19
582.034	1719.05
582.236	1658.22
582.438	1715.76
582.64	1749.67
582.841	1751.41
583.043	1746.37
583.245	1696.97
583.447	1729.9
583.649	1689.8
583.85	1729.32
584.052	1733.97
584.254	1640.01
584.456	1701.62
584.657	1641.56
584.859	1712.47
585.061	1701.62
585.262	1677.4
585.464	1656.28
585.666	1697.16
585.867	1670.62
586.069	1713.82
586.27	1714.6
586.472	1691.93
586.674	1628.57
586.875	1647.76
587.077	1645.43
587.278	1627.02
587.48	1651.63
587.681	1749.28
587.883	1682.44
588.084	1581.49
588.285	1611.52
588.487	1593.7
588.688	1590.21
588.89	1536.35
589.091	1491.01
589.292	1508.65
589.494	1462.92
589.695	1418.17
589.896	1366.05
590.098	1372.44
590.299	1434.05
590.5	1409.25
590.702	1448.2
590.903	1486.56
591.104	1545.07
591.305	1514.26
591.507	1557.08
591.708	1514.07
591.909	1515.23
592.11	1579.17
592.311	1577.62
592.512	1512.13
592.714	1480.55
592.915	1478.42
593.116	1523.18
593.317	1573.74
593.518	1519.49
593.719	1516.2
593.92	1548.36
594.121	1570.64
594.322	1506.71
594.523	1487.53
594.724	1445.48
594.925	1478.61
595.126	1537.9
595.327	1521.24
595.528	1497.21
595.729	1483.65
595.929	1516.39
596.13	1502.83
596.331	1530.93
596.532	1530.34
596.733	1578.01
596.934	1543.52
597.135	1580.14
597.335	1529.18
597.536	1518.53
597.737	1512.33
597.938	1519.11
598.138	1539.64
598.339	1522.01
598.54	1528.41
598.74	1542.16
598.941	1550.11
599.142	1594.28
599.342	1529.38
599.543	1517.17
599.744	1529.38
599.944	1508.65
600.145	1536.54
600.345	1487.53
600.546	1603
600.746	1607.84
600.947	1598.93
601.147	1525.31
601.348	1561.54
601.548	1528.6
601.749	1584.59
601.949	1503.8
602.15	1506.71
602.35	1515.23
602.551	1550.69
602.751	1504
602.951	1536.54
603.152	1458.46
603.352	1528.21
603.552	1546.62
603.753	1543.52
603.953	1587.69
604.153	1546.04
604.354	1522.79
604.554	1541.19
604.754	1543.13
604.954	1536.35
605.155	1538.09
605.355	1530.93
605.555	1536.74
605.755	1584.01
605.955	1542.55
606.155	1558.24
606.356	1524.53
606.556	1553.4
606.756	1543.91
606.956	1474.93
607.156	1581.88
607.356	1490.05
607.556	1512.91
607.756	1519.3
607.956	1570.26
608.156	1543.71
608.356	1451.49
608.556	1521.24
608.756	1481.33
608.956	1501.28
609.156	1511.55
609.356	1506.32
609.556	1485.4
609.755	1527.44
609.955	1474.55
610.155	1502.64
610.355	1492.76
610.555	1478.61
610.755	1500.7
610.954	1396.66
611.154	1444.71
611.354	1468.35
611.554	1465.83
611.753	1457.88
611.953	1433.47
612.153	1525.11
612.352	1466.41
612.552	1428.63
612.752	1378.06
612.951	1451.1
613.151	1422.23
613.351	1413.52
613.55	1423.4
613.75	1415.07
613.949	1456.72
614.149	1441.22
614.348	1424.56
614.548	1391.04
614.747	1346.48
614.947	1421.27
615.146	1342.8
615.346	1453.23
615.545	1391.43
615.745	1432.11
615.944	1458.08
616.144	1420.68
616.343	1439.67
616.542	1392.4
616.742	1387.75
616.941	1404.99
617.14	1349.97
617.34	1380.58
617.539	1380.58
617.738	1382.13
617.938	1427.85
618.137	1375.15
618.336	1368.95
618.535	1393.95
618.734	1378.25
618.934	1410.8
619.133	1398.79
619.332	1453.81
619.531	1394.92
619.73	1382.13
619.929	1414.87
620.128	1429.01
620.328	1426.69
620.527	1368.95
620.726	1370.5
620.925	1390.27
621.124	1394.33
621.323	1369.73
621.522	1348.8
621.721	1344.54
621.92	1314.9
622.119	1376.12
622.318	1344.73
622.517	1369.53
622.715	1375.35
622.914	1295.72
623.113	1361.78
623.312	1281.19
623.511	1336.02
623.71	1326.14
623.909	1326.91
624.107	1372.63
624.306	1296.88
624.505	1299.4
624.704	1347.45
624.902	1295.72
625.101	1363.72
625.3	1266.07
625.499	1263.17
625.697	1279.64
625.896	1266.07
626.095	1318.19
626.293	1261.62
626.492	1249.61
626.69	1313.93
626.889	1273.82
627.088	1300.17
627.286	1280.99
627.485	1235.85
627.683	1228.1
627.882	1265.3
628.08	1189.35
628.279	1218.41
628.477	1281.77
628.676	1170.94
628.874	1229.65
629.073	1197.1
629.271	1206.79
629.469	1242.82
629.668	1214.54
629.866	1219.19
630.065	1206.01
630.263	1224.22
630.461	1188.96
630.66	1205.04
630.858	1235.27
631.056	1240.5
631.254	1252.7
631.453	1161.26
631.651	1254.06
631.849	1211.82
632.047	1233.91
632.245	1215.51
632.444	1225.39
632.642	1249.41
632.84	1239.53
633.038	1232.17
633.236	1189.74
633.434	1222.09
633.632	1209.69
633.83	1193.22
634.028	1219.96
634.227	1235.07
634.425	1326.91
634.623	1212.99
634.821	1278.86
635.019	1251.54
635.216	1225.97
635.414	1282.35
635.612	1236.62
635.81	1216.47
636.008	1295.52
636.206	1255.42
636.404	1249.99
636.602	1225.58
636.8	1235.85
636.997	1278.09
637.195	1295.91
637.393	1244.18
637.591	1307.15
637.789	1261.81
637.986	1242.05
638.184	1277.31
638.382	1281.38
638.58	1273.63
638.777	1328.85
638.975	1238.56
639.173	1267.24
639.37	1288.35
639.568	1262.39
639.765	1287.77
639.963	1238.37
640.161	1291.45
640.358	1288.55
640.556	1211.24
640.753	1244.96
640.951	1213.18
641.148	1252.32
641.346	1233.72
641.543	1245.34
641.741	1247.67
641.938	1171.14
642.136	1230.81
642.333	1229.84
642.531	1285.45
642.728	1264.72
642.925	1234.88
643.123	1205.62
643.32	1237.98
643.517	1186.44
643.715	1213.18
643.912	1213.57
644.109	1240.11
644.306	1220.74
644.504	1201.75
644.701	1239.34
644.898	1239.72
645.095	1197.1
645.293	1222.09
645.49	1253.67
645.687	1216.47
645.884	1231.59
646.081	1143.24
646.278	1159.71
646.475	1172.88
646.672	1152.15
646.87	1195.16
647.067	1175.21
647.264	1176.95
647.461	1117.66
647.658	1091.7
647.855	1166.1
648.052	1115.92
648.249	1056.83
648.446	1131.42
648.642	1128.71
648.839	1094.99
649.036	1116.11
649.233	1097.51
649.43	1109.14
649.627	1058.18
649.824	1084.73
650.021	1083.18
650.217	1115.53
650.414	1080.08
650.611	1141.11
650.808	1157.77
651.004	1098.29
651.201	1140.33
651.398	1177.72
651.595	1116.89
651.791	1085.11
651.988	1155.83
652.185	1075.81
652.381	1118.63
652.578	1051.79
652.775	1093.44
652.971	1112.63
653.168	1096.93
653.364	1146.14
653.561	1087.63
653.757	1113.21
653.954	1131.42
654.15	1093.64
654.347	1158.35
654.543	1105.65
654.74	1049.08
654.936	1041.91
655.133	1084.34
655.329	1088.99
655.525	1061.09
655.722	1075.23
655.918	1059.93
656.115	1026.8
656.311	972.16
656.507	921.59
656.704	925.66
656.9	955.5
657.096	951.23
657.292	932.25
657.489	986.5
657.685	1028.54
657.881	976.81
658.077	971.58
658.273	1009.16
658.47	1082.98
658.666	1038.81
658.862	1076.4
659.058	1041.33
659.254	1091.51
659.45	1031.64
659.646	1055.28
659.842	1077.94
660.038	1090.34
660.234	1032.8
660.43	1070.58
660.626	1155.25
660.822	1096.74
661.018	1108.36
661.214	1084.34
661.41	1030.67
661.606	1088.6
661.802	1123.48
661.998	1102.36
662.194	1049.85
662.39	1087.24
662.586	1100.23
662.781	1102.16
662.977	1125.61
663.173	1092.28
663.369	1067.48
663.564	1084.73
663.76	1115.14
663.956	1078.53
664.152	1086.66
664.347	1017.88
664.543	1065.35
664.739	1051.79
664.934	1007.42
665.13	1016.14
665.326	1102.74
665.521	1064.19
665.717	1039.58
665.912	996.38
666.108	971.97
666.304	1058.76
666.499	1030.09
666.695	973.71
666.89	1036.1
667.086	1088.99
667.281	1082.4
667.477	1113.59
667.672	1058.57
667.867	1031.45
668.063	1066.51
668.258	1025.25
668.454	1043.26
668.649	1090.15
668.844	1040.16
669.04	1093.64
669.235	1037.45
669.43	1027.76
669.626	993.47
669.821	1010.13
670.016	1012.46
670.211	1007.03
670.407	1025.83
670.602	1057.02
670.797	1022.34
670.992	1048.5
671.187	1030.67
671.382	1049.46
671.578	971.38
671.773	1020.79
671.968	945.42
672.163	1004.32
672.358	1022.92
672.553	987.08
672.748	957.43
672.943	1054.89
673.138	1022.15
673.333	1051.79
673.528	958.79
673.723	1008
673.918	986.11
674.113	938.83
674.308	1031.06
674.503	1025.44
674.698	1029.9
674.892	1008.78
675.087	1017.88
675.282	996.96
675.477	970.42
675.672	999.86
675.867	960.73
676.061	964.8
676.256	960.53
676.451	963.83
676.646	992.7
676.84	960.53
677.035	921.98
677.23	965.18
677.424	988.82
677.619	1014.4
677.814	1014.2
678.008	1026.41
678.203	974.87
678.397	971.77
678.592	960.15
678.787	1015.56
678.981	968.87
679.176	993.86
679.37	962.47
679.565	959.95
679.759	982.82
679.954	977.2
680.148	1029.51
680.342	1038.03
680.537	1005.87
680.731	947.55
680.926	1000.25
681.12	982.04
681.314	952.98
681.509	967.32
681.703	987.85
681.897	956.66
682.092	933.41
682.286	934.38
682.48	996.38
682.674	981.46
682.869	965.77
683.063	944.84
683.257	972.93
683.451	961.89
683.645	980.49
683.839	971.19
684.034	944.65
684.228	1012.26
684.422	910.93
684.616	943.1
684.81	977.39
685.004	919.85
685.198	948.91
685.392	961.7
685.586	944.07
685.78	927.4
685.974	943.68
686.168	951.23
686.362	995.41
686.556	880.9
686.75	830.72
686.944	794.88
687.138	797.21
687.331	680.96
687.525	732.49
687.719	661.97
687.913	701.11
688.107	684.25
688.301	681.93
688.494	704.98
688.688	691.61
688.882	684.06
689.076	685.22
689.269	721.26
689.463	764.27
689.657	713.7
689.85	723.39
690.044	732.69
690.238	742.37
690.431	772.6
690.625	757.1
690.818	766.98
691.012	797.98
691.205	816
691.399	775.12
691.593	804.76
691.786	871.6
691.98	850.68
692.173	902.22
692.366	870.25
692.56	891.56
692.753	921.2
692.947	859.98
693.14	903.96
693.333	870.05
693.527	890.01
693.72	915.78
693.914	887.3
694.107	882.26
694.3	867.15
694.493	863.08
694.687	934.77
694.88	880.13
695.073	925.27
695.266	929.15
695.46	927.79
695.653	950.65
695.846	939.61
696.039	887.69
696.232	897.57
696.425	965.96
696.618	979.13
696.812	981.85
697.005	1028.93
697.198	1071.75
697.391	1030.48
697.584	1052.18
697.777	1106.62
697.97	1073.3
698.163	1068.26
698.356	1083.18
698.549	1155.06
698.742	1142.27
698.935	1087.24
699.127	1133.36
699.32	1062.83
699.513	1089.57
699.706	1126.58
699.899	1141.88
700.092	1097.13
700.285	1110.49
700.477	1066.13
700.67	1128.13
700.863	1161.45
701.056	1209.31
701.248	1182.96
701.441	1197.1
701.634	1164.74
701.826	1268.79
702.019	1161.84
702.212	1209.69
702.404	1179.08
702.597	1160.09
702.79	1201.36
702.982	1264.14
703.175	1300.75
703.367	1286.61
703.56	1320.71
703.752	1387.75
703.945	1330.59
704.137	1349
704.33	1369.73
704.522	1369.73
704.715	1386.39
704.907	1398.21
705.1	1422.82
705.292	1460.79
705.484	1406.93
705.677	1423.78
705.869	1462.53
706.061	1483.65
706.254	1527.63
706.446	1470.67
706.638	1496.83
706.831	1552.24
707.023	1497.6
707.215	1587.89
707.407	1631.09
707.599	1583.82
707.792	1629.93
707.984	1630.12
708.176	1623.15
708.368	1616.76
708.56	1640.59
708.752	1654.34
708.944	1664.61
709.136	1677.4
709.329	1658.99
709.521	1774.85
709.713	1753.35
709.905	1727.77
710.097	1789
710.289	1744.63
710.481	1782.99
710.672	1791.52
710.864	1808.95
711.056	1847.12
711.248	1873.47
711.44	1858.17
711.632	1852.55
711.824	1866.88
712.016	1931.6
712.207	1932.37
712.399	1910.67
712.591	1965.5
712.783	1981
712.975	1973.06
713.166	1952.13
713.358	1971.7
713.55	2060.05
713.741	2030.02
713.933	2035.25
714.125	2045.91
714.316	2033.12
714.508	2105.19
714.7	2090.08
714.891	2081.94
715.083	2129.02
715.274	2114.11
715.466	2153.24
715.657	2171.26
715.849	2046.87
716.04	2114.3
716.232	2062.96
716.423	2088.34
716.615	2036.41
716.806	2028.08
716.998	1945.55
717.189	1894.2
717.381	1828.52
717.572	1779.5
717.763	1792.1
717.955	1812.44
718.146	1745.02
718.337	1701.42
718.528	1705.49
718.72	1613.46
718.911	1634.19
719.102	1630.71
719.293	1717.31
719.485	1669.84
719.676	1655.12
719.867	1648.14
720.058	1658.02
720.249	1634.77
720.44	1677.79
720.632	1715.18
720.823	1747.34
721.014	1896.53
721.205	1937.8
721.396	2008.9
721.587	2121.27
721.778	2108.68
721.969	2188.12
722.16	2243.92
722.351	2256.9
722.542	2352.61
722.733	2405.31
722.924	2329.55
723.115	2338.85
723.305	2341.76
723.496	2346.41
723.687	2213.5
723.878	2214.66
724.069	2226.48
724.26	2262.9
724.45	2162.15
724.641	2214.08
724.832	2231.13
725.023	2144.72
725.213	2210.59
725.404	2189.67
725.595	2187.92
725.785	2188.7
725.976	2261.93
726.167	2216.02
726.357	2219.12
726.548	2357.06
726.739	2283.05
726.929	2331.1
727.12	2407.05
727.31	2400.08
727.501	2363.07
727.691	2364.04
727.882	2357.06
728.072	2454.52
728.263	2441.15
728.453	2468.28
728.644	2465.95
728.834	2434.76
729.024	2432.43
729.215	2447.16
729.405	2462.66
729.596	2523.88
729.786	2573.67
729.976	2569.8
730.167	2577.94
730.357	2572.51
730.547	2555.46
730.737	2622.89
730.928	2673.07
731.118	2723.44
731.308	2656.4
731.498	2667.25
731.688	2737.2
731.879	2778.85
732.069	2842.79
732.259	2844.73
732.449	2892.78
732.639	2978.02
732.829	3026.27
733.019	3038.28
733.209	3107.64
733.399	3094.85
733.589	3236.1
733.779	3212.85
733.969	3258.38
734.159	3309.14
734.349	3367.65
734.539	3450.38
734.729	3385.67
734.919	3405.04
735.109	3491.65
735.299	3419.57
735.488	3459.87
735.678	3451.54
735.868	3428.49
736.058	3431.01
736.248	3437.98
736.437	3442.82
736.627	3411.63
736.817	3564.3
737.007	3466.85
737.196	3527.3
737.386	3557.91
737.576	3493.39
737.765	3626.88
737.955	3575.35
738.144	3667.38
738.334	3617.58
738.524	3570.7
738.713	3643.16
738.903	3676.1
739.092	3682.68
739.282	3617.58
739.471	3683.85
739.661	3648.58
739.85	3768.71
740.04	3764.25
740.229	3813.66
740.419	3785.95
740.608	3835.94
740.797	3779.75
740.987	3838.26
741.176	3842.52
741.365	3822.18
741.555	3747.39
741.744	3864.81
741.933	3856.09
742.123	3910.72
742.312	3877.79
742.501	3958.39
742.69	4013.02
742.88	3884.18
743.069	4005.27
743.258	3962.65
743.447	3987.06
743.636	3945.6
743.825	3951.02
744.014	4008.76
744.204	3986.48
744.393	3933.59
744.582	4089.16
744.771	4053.32
744.96	4018.64
745.149	4005.27
745.338	4019.61
745.527	4038.79
745.716	3992.68
745.905	4026
746.094	4105.83
746.283	4097.69
746.471	4067.85
746.66	4134.31
746.849	4097.5
747.038	4146.9
747.227	4105.25
747.416	4151.36
747.604	4074.44
747.793	4093.62
747.982	4109.51
748.171	4118.42
748.359	4094.59
748.548	4116.87
748.737	4125.59
748.926	4088
749.114	4000.82
749.303	4100.01
749.491	4072.31
749.68	4008.37
749.869	4116.29
750.057	4051.58
750.246	4025.81
750.434	4022.32
750.623	4075.02
750.811	3989.97
751	4091.88
751.188	4018.06
751.377	4044.02
751.565	4008.37
751.754	3972.72
751.942	4030.46
752.131	4097.11
752.319	4001.2
752.507	3958.58
752.696	4033.95
752.884	4059.33
753.072	3965.36
753.261	4040.34
753.449	4013.8
753.637	3974.85
753.825	4062.81
754.014	4036.66
754.202	3988.42
754.39	4029.68
754.578	4055.45
754.766	3976.4
754.955	4004.3
755.143	4037.24
755.331	3982.41
755.519	4019.8
755.707	3987.25
755.895	3935.52
756.083	3942.5
756.271	3932.42
756.459	3963.62
756.647	3954.32
756.835	3918.47
757.023	3937.46
757.211	3931.07
757.399	3883.79
757.587	3910.92
757.775	3857.83
757.963	3875.85
758.151	3893.67
758.339	3840.2
758.526	3858.22
758.714	3822.18
758.902	3711.94
759.09	3596.66
759.278	3369.01
759.465	3106.48
759.653	2680.82
759.841	2456.07
760.028	2098.02
760.216	1812.63
760.404	1702.97
760.591	1391.43
760.779	1149.63
760.967	1011.1
761.154	858.24
761.342	885.55
761.529	855.91
761.717	903.57
761.905	898.34
762.092	981.85
762.28	927.98
762.467	918.3
762.655	871.41
762.842	887.69
763.029	895.24
763.217	886.33
763.404	870.64
763.592	915.58
763.779	873.74
763.966	926.63
764.154	950.46
764.341	1034.55
764.528	1071.36
764.716	1137.23
764.903	1157.96
765.09	1271.69
765.277	1313.74
765.465	1483.26
765.652	1549.53
765.839	1641.17
766.026	1769.43
766.213	1831.04
766.4	1957.36
766.588	2167.58
766.775	2186.76
766.962	2366.17
767.149	2441.15
767.336	2554.69
767.523	2588.2
767.71	2721.7
767.897	2859.26
768.084	2937.92
768.271	2965.24
768.458	3019.1
768.645	3077.8
768.832	3058.62
769.019	3153.37
769.206	3179.91
769.392	3283.18
769.579	3369.2
769.766	3291.51
769.953	3304.29
770.14	3387.8
770.327	3373.46
770.513	3447.28
770.7	3504.44
770.887	3421.71
771.073	3441.85
771.26	3453.48
771.447	3412.99
771.634	3412.02
771.82	3475.18
772.007	3401.17
772.193	3468.4
772.38	3474.99
772.567	3437.4
772.753	3418.61
772.94	3485.64
773.126	3509.86
773.313	3478.86
773.499	3468.01
773.686	3528.27
773.872	3414.34
774.059	3451.35
774.245	3426.74
774.432	3425
774.618	3348.86
774.804	3400.01
774.991	3387.8
775.177	3447.28
775.363	3415.7
775.55	3443.21
775.736	3377.53
775.922	3391.09
776.109	3398.26
776.295	3372.69
776.481	3403.69
776.667	3404.07
776.853	3370.36
777.04	3337.81
777.226	3345.37
777.412	3430.04
777.598	3320.38
777.784	3353.7
777.97	3286.66
778.156	3367.07
778.342	3374.04
778.528	3321.54
778.715	3261.86
778.901	3226.8
779.087	3302.74
779.272	3268.26
779.458	3259.93
779.644	3266.71
779.83	3256.63
780.016	3338.2
780.202	3282.21
780.388	3264.58
780.574	3151.04
780.76	3193.08
780.946	3236.48
781.131	3242.68
781.317	3153.75
781.503	3192.7
781.689	3187.27
781.874	3290.54
782.06	3168.67
782.246	3182.04
782.432	3206.45
782.617	3171
782.803	3235.13
782.989	3134.57
783.174	3158.4
783.36	3128.95
783.545	3132.44
783.731	3110.93
783.916	3011.74
784.102	3119.85
784.288	3067.54
784.473	3109.19
784.659	3065.21
784.844	3077.22
785.029	3058.82
785.215	3044.87
785.4	3010.38
785.586	3072.57
785.771	2991.97
785.956	3025.69
786.142	2965.62
786.327	3027.04
786.512	2998.17
786.698	2979.57
786.883	2938.89
787.068	2964.27
787.254	2962.72
787.439	2958.26
787.624	2946.83
787.809	2919.71
787.994	2920.09
788.18	2983.26
788.365	2852.86
788.55	2854.22
788.735	2873.01
788.92	2866.43
789.105	2828.45
789.29	2893.74
789.475	2779.05
789.66	2790.67
789.845	2779.82
790.03	2773.23
790.215	2857.13
790.4	2797.65
790.585	2838.14
790.77	2832.33
790.955	2720.92
791.14	2779.43
791.325	2858.09
791.51	2681.98
791.695	2740.88
791.879	2749.4
792.064	2713.17
792.249	2824.58
792.434	2751.53
792.618	2728.87
792.803	2758.12
792.988	2727.32
793.173	2753.86
793.357	2813.92
793.542	2705.42
793.727	2772.07
793.911	2802.49
794.096	2763.74
794.281	2744.17
794.465	2876.5
794.65	2784.86
794.834	2799
795.019	2811.01
795.203	2848.41
795.388	2847.63
795.572	2886.77
795.757	2844.14
795.941	2813.53
796.126	2795.32
796.31	2724.6
796.494	2771.3
796.679	2749.98
796.863	2793.38
797.048	2853.44
797.232	2832.91
797.416	2824.19
797.601	2837.56
797.785	2855.58
797.969	2910.41
798.153	2781.76
798.338	2850.15
798.522	2872.24
798.706	2885.99
798.89	2878.24
799.074	2947.02
799.258	2910.6
799.443	2867.01
799.627	2843.37
799.811	2912.54
799.995	2836.59
800.179	2817.21
800.363	2834.84
800.547	2891.23
800.731	2870.69
800.915	2797.65
801.099	2768.39
801.283	2796.29
801.467	2813.15
801.651	2809.85
801.835	2838.33
802.019	2808.5
802.202	2793.58
802.386	2818.76
802.57	2784.47
802.754	2781.18
802.938	2733.32
803.121	2756.76
803.305	2828.26
803.489	2799
803.673	2817.8
803.856	2814.5
804.04	2783.31
804.224	2829.03
804.407	2811.21
804.591	2766.45
804.775	2765.68
804.958	2771.88
805.142	2866.81
805.326	2811.01
805.509	2831.16
805.693	2878.05
805.876	2835.23
806.06	2842.4
806.243	2868.75
806.427	2856.54
806.61	2888.51
806.794	2824.58
806.977	2869.72
807.16	2817.02
807.344	2847.63
807.527	2853.83
807.71	2783.31
807.894	2849.96
808.077	2831.36
808.26	2774.98
808.444	2781.76
808.627	2818.18
808.81	2759.67
808.993	2713.56
809.177	2706
809.36	2707.55
809.543	2748.24
809.726	2687.02
809.909	2658.15
810.092	2641.68
810.276	2622.3
810.459	2658.73
810.642	2613.39
810.825	2579.68
811.008	2592.47
811.191	2515.55
811.374	2514.77
811.557	2521.17
811.74	2544.42
811.923	2468.47
812.106	2464.21
812.289	2446.96
812.472	2423.13
812.654	2427.01
812.837	2386.51
813.02	2306.88
813.203	2304.75
813.386	2191.99
813.569	2205.17
813.751	2118.56
813.934	2172.62
814.117	2113.91
814.3	2092.99
814.482	2023.43
814.665	1994.56
814.848	1964.34
815.03	1869.79
815.213	1916.1
815.396	1879.67
815.578	1861.65
815.761	1791.32
815.943	1879.67
816.126	1767.1
816.309	1761.87
816.491	1719.44
816.674	1633.42
816.856	1676.43
817.039	1699.29
817.221	1749.47
817.403	1661.71
817.586	1728.94
817.768	1718.86
817.951	1653.18
818.133	1621.99
818.315	1671.39
818.498	1723.7
818.68	1757.42
818.862	1695.42
819.045	1752.57
819.227	1766.52
819.409	1759.16
819.591	1755.09
819.774	1741.92
819.956	1725.64
820.138	1805.85
820.32	1800.43
820.502	1835.88
820.684	1909.7
820.866	1914.55
821.048	1931.01
821.231	1952.52
821.413	1971.7
821.595	1955.23
821.777	1972.48
821.959	1934.11
822.141	1999.21
822.323	1868.82
822.505	1819.8
822.686	1770.01
822.868	1635.36
823.05	1586.34
823.232	1530.93
823.414	1493.73
823.596	1559.99
823.778	1502.25
823.96	1544.88
824.141	1572.58
824.323	1583.43
824.505	1679.34
824.687	1727.19
824.868	1791.71
825.05	1847.12
825.232	1872.31
825.413	1968.41
825.595	1932.76
825.777	1855.65
825.958	1936.44
826.14	1908.73
826.321	1925.78
826.503	1908.54
826.685	1923.07
826.866	1964.53
827.048	1936.25
827.229	1886.45
827.411	1859.91
827.592	1778.34
827.773	1828.33
827.955	1750.05
828.136	1766.14
828.318	1718.09
828.499	1813.22
828.68	1715.57
828.862	1713.05
829.043	1723.7
829.224	1714.99
829.406	1693.09
829.587	1691.93
829.768	1694.64
829.949	1745.99
830.131	1704.72
830.312	1777.18
830.493	1748.5
830.674	1743.85
830.855	1685.34
831.036	1757.22
831.218	1786.67
831.399	1781.05
831.58	1751.8
831.761	1711.69
831.942	1716.54
832.123	1708.79
832.304	1675.07
832.485	1702.78
832.666	1739.01
832.847	1747.73
833.028	1732.23
833.209	1732.81
833.389	1708.01
833.57	1679.14
833.751	1706.46
833.932	1724.67
834.113	1729.9
834.294	1689.99
834.475	1739.4
834.655	1805.08
834.836	1785.7
835.017	1784.35
835.198	1701.04
835.378	1755.48
835.559	1829.49
835.74	1719.25
835.92	1802.56
836.101	1734.55
836.281	1792.1
836.462	1809.15
836.643	1836.47
836.823	1814.96
837.004	1791.13
837.184	1865.91
837.365	1806.43
837.545	1859.72
837.726	1803.53
837.906	1851.58
838.087	1852.35
838.267	1823.1
838.448	1767.1
838.628	1795.78
838.808	1832.2
838.989	1844.6
839.169	1745.21
839.349	1862.04
839.53	1872.31
839.71	1843.05
839.89	1799.07
840.07	1862.82
840.251	1786.09
840.431	1850.03
840.611	1813.99
840.791	1812.44
840.971	1842.08
841.151	1770.2
841.332	1766.33
841.512	1856.23
841.692	1768.27
841.872	1822.71
842.052	1802.37
842.232	1777.76
842.412	1788.42
842.592	1780.28
842.772	1820
842.952	1803.53
843.132	1798.3
843.312	1781.83
843.492	1737.85
843.672	1814.57
843.851	1721.57
844.031	1739.4
844.211	1766.72
844.391	1738.62
844.571	1786.48
844.751	1783.77
844.93	1790.55
845.11	1749.28
845.29	1772.53
845.47	1811.08
845.649	1773.69
845.829	1809.53
846.009	1741.53
846.188	1768.85
846.368	1764.59
846.547	1765.94
846.727	1792.29
846.907	1729.52
847.086	1716.54
847.266	1791.71
847.445	1750.64
847.625	1731.45
847.804	1718.86
847.984	1727.19
848.163	1708.01
848.343	1699.68
848.522	1712.27
848.701	1735.33
848.881	1703.17
849.06	1710.92
849.239	1708.98
849.419	1683.02
849.598	1569.48
849.777	1632.06
849.957	1604.16
850.136	1587.89
850.315	1558.24
850.494	1570.26
850.674	1589.05
850.853	1636.32
851.032	1557.66
851.211	1631.67
851.39	1598.35
851.569	1567.74
851.748	1556.31
851.927	1610.36
852.107	1575.1
852.286	1574.71
852.465	1519.69
852.644	1617.72
852.823	1599.32
853.002	1582.46
853.181	1575.68
853.359	1634.58
853.538	1522.98
853.717	1604.16
853.896	1498.76
854.075	1434.44
854.254	1391.04
854.433	1373.22
854.611	1398.98
854.79	1319.74
854.969	1387.17
855.148	1425.72
855.327	1377.67
855.505	1437.35
855.684	1401.12
855.863	1443.93
856.041	1411.38
856.22	1480.94
856.399	1445.48
856.577	1528.41
856.756	1498.38
856.934	1642.72
857.113	1618.89
857.291	1525.31
857.47	1506.9
857.648	1526.28
857.827	1518.53
858.005	1525.5
858.184	1499.73
858.362	1634.19
858.541	1506.13
858.719	1501.67
858.898	1538.48
859.076	1490.82
859.254	1541.78
859.433	1482.1
859.611	1491.79
859.789	1455.17
859.967	1541.19
860.146	1557.08
860.324	1431.92
860.502	1483.07
860.68	1426.11
860.859	1460.6
861.037	1448.78
861.215	1516.2
861.393	1480.16
861.571	1454.78
861.749	1421.65
861.927	1442
862.105	1432.89
862.283	1426.3
862.461	1398.98
862.639	1438.9
862.817	1433.47
862.995	1434.05
863.173	1426.3
863.351	1446.06
863.529	1422.82
863.707	1435.99
863.885	1476.29
864.063	1376.7
864.241	1416.81
864.418	1455.56
864.596	1378.06
864.774	1362.17
864.952	1365.47
865.129	1420.1
865.307	1358.49
865.485	1322.07
865.663	1379.61
865.84	1322.45
866.018	1310.05
866.196	1207.95
866.373	1235.46
866.551	1212.41
866.728	1155.06
866.906	1209.31
867.084	1238.37
867.261	1251.93
867.439	1266.85
867.616	1307.15
867.794	1275.76
867.971	1298.24
868.149	1283.7
868.326	1361.98
868.503	1343.77
868.681	1301.72
868.858	1295.72
869.035	1288.74
869.213	1294.17
869.39	1271.11
869.567	1379.03
869.745	1262.59
869.922	1290.1
870.099	1304.05
870.276	1294.94
870.454	1340.47
870.631	1305.4
870.808	1294.94
870.985	1315.29
871.162	1335.82
871.339	1303.85
871.517	1213.96
871.694	1261.62
871.871	1259.49
872.048	1255.8
872.225	1243.02
872.402	1252.7
872.579	1214.34
872.756	1256.77
872.933	1242.44
873.11	1216.28
873.287	1273.24
873.463	1228.87
873.64	1231.39
873.817	1264.91
873.994	1213.18
874.171	1196.13
874.348	1241.27
874.524	1144.98
874.701	1228.87
874.878	1169.59
875.055	1210.86
875.231	1212.6
875.408	1204.66
875.585	1157.38
875.762	1198.07
875.938	1197.1
876.115	1177.34
876.291	1157.38
876.468	1162.23
876.645	1105.84
876.821	1137.62
876.998	1176.56
877.174	1163.58
877.351	1157.58
877.527	1137.81
877.704	1174.04
877.88	1181.02
878.057	1145.18
878.233	1196.71
878.409	1104.88
878.586	1165.52
878.762	1150.21
878.938	1135.49
879.115	1071.55
879.291	1146.53
879.467	1057.6
879.644	1088.02
879.82	1126.38
879.996	1099.64
880.172	1078.91
880.349	1130.84
880.525	1105.84
880.701	1022.73
880.877	1051.01
881.053	1071.55
881.229	1077.17
881.405	1130.06
881.581	1066.51
881.757	1079.88
881.933	1100.61
882.109	1112.43
882.285	1051.98
882.461	1034.16
882.637	1085.5
882.813	1062.64
882.989	1069.42
883.165	1144.98
883.341	1058.38
883.517	1100.42
883.693	1087.83
883.869	1108.94
884.044	1060.12
884.22	1117.47
884.396	1135.88
884.572	1088.6
884.747	1135.49
884.923	1129.09
885.099	1122.51
885.275	1095.96
885.45	1070.39
885.626	1046.75
885.801	1047.53
885.977	1067.87
886.153	1025.05
886.328	1074.85
886.504	1037.65
886.679	1082.98
886.855	1036.68
887.03	1109.33
887.206	1058.76
887.381	1084.73
887.557	1069.03
887.732	1060.12
887.908	1079.69
888.083	1080.27
888.258	1043.07
888.434	1053.53
888.609	1060.51
888.784	1103.52
888.96	1051.21
889.135	1063.41
889.31	1030.28
889.485	1057.8
889.661	1063.41
889.836	1072.91
890.011	1097.51
890.186	1055.47
890.361	1048.69
890.537	1101.19
890.712	1078.33
890.887	1068.06
891.062	1053.15
891.237	1121.93
891.412	1039.39
891.587	1067.87
891.762	1092.09
891.937	1104.49
892.112	1037.45
892.287	1036.1
892.462	1004.51
892.637	971.97
892.812	983.2
892.987	977.97
893.161	961.5
893.336	952.98
893.511	994.05
893.686	982.43
893.861	985.72
894.035	971.77
894.21	954.72
894.385	907.83
894.56	949.88
894.734	874.32
894.909	881.29
895.084	886.14
895.258	869.67
895.433	902.6
895.608	858.04
895.782	828.59
895.957	790.04
896.131	826.46
896.306	758.07
896.48	752.64
896.655	755.16
896.829	657.51
897.004	702.27
897.178	716.61
897.353	671.46
897.527	752.64
897.701	726.49
897.876	684.25
898.05	755.16
898.224	728.62
898.399	748.19
898.573	703.24
898.747	581.95
898.921	621.09
899.096	567.42
899.27	559.28
899.444	536.23
899.618	592.61
899.792	598.23
899.967	615.28
900.141	663.13
900.315	597.06
900.489	622.06
900.663	613.73
900.837	622.45
901.011	543.59
901.185	647.24
901.359	612.37
901.533	598.61
901.707	632.52
901.881	623.41
902.055	577.69
902.229	602.3
902.403	651.51
902.576	601.71
902.75	618.96
902.924	712.15
903.098	675.73
903.272	708.08
903.446	775.89
903.619	756.32
903.793	762.33
903.967	753.42
904.14	813.87
904.314	784.22
904.488	776.47
904.661	821.81
904.835	794.69
905.009	812.12
905.182	831.69
905.356	794.49
905.529	812.71
905.703	758.26
905.876	746.83
906.05	728.23
906.223	700.53
906.397	638.33
906.57	650.34
906.744	622.64
906.917	629.42
907.09	624.77
907.264	566.45
907.437	568.2
907.61	562.38
907.784	574.01
907.957	567.61
908.13	547.85
908.304	584.28
908.477	539.72
908.65	535.26
908.823	510.46
908.996	579.24
909.17	562.19
909.343	511.82
909.516	526.93
909.689	513.17
909.862	527.12
910.035	542.23
910.208	520.53
910.381	487.98
910.554	587.96
910.727	543.78
910.9	518.6
911.073	505.03
911.246	579.05
911.419	591.06
911.592	582.34
911.765	532.74
911.938	511.82
912.11	535.84
912.283	572.85
912.456	597.06
912.629	562.96
912.802	506.97
912.974	472.29
913.147	431.22
913.32	409.32
913.493	423.85
913.665	466.09
913.838	465.32
914.01	453.11
914.183	486.43
914.356	440.71
914.528	486.43
914.701	534.87
914.873	492.25
915.046	472.87
915.218	432.19
915.391	361.86
915.563	389.37
915.736	448.65
915.908	472.1
916.081	461.83
916.253	467.45
916.425	450.4
916.598	459.7
916.77	451.95
916.942	411.65
917.115	363.21
917.287	453.5
917.459	438
917.632	384.33
917.804	364.57
917.976	433.93
918.148	431.6
918.32	424.82
918.493	494.57
918.665	499.61
918.837	466.28
919.009	529.06
919.181	490.89
919.353	490.5
919.525	480.04
919.697	469.19
919.869	501.93
920.041	541.27
920.213	593
920.385	519.95
920.557	477.13
920.729	547.66
920.901	500.38
921.073	508.13
921.244	476.36
921.416	530.8
921.588	483.53
921.76	485.47
921.932	513.17
922.103	499.03
922.275	490.12
922.447	514.14
922.619	441.1
922.79	461.25
922.962	461.44
923.134	516.08
923.305	427.34
923.477	394.99
923.648	418.82
923.82	412.81
923.991	383.17
924.163	370.77
924.335	420.75
924.506	394.99
924.677	452.92
924.849	396.15
925.02	415.14
925.192	464.54
925.363	437.42
925.535	409.52
925.706	387.82
925.877	428.7
926.049	385.69
926.22	411.07
926.391	419.2
926.562	443.62
926.734	400.8
926.905	431.6
927.076	377.36
927.247	381.62
927.419	324.85
927.59	359.53
927.761	323.49
927.932	336.47
928.103	333.96
928.274	320.39
928.445	292.3
928.616	292.49
928.787	308.57
928.958	309.35
929.129	314.97
929.3	288.23
929.471	227.98
929.642	173.53
929.813	176.63
929.984	255.1
930.155	178.57
930.326	235.14
930.496	179.73
930.667	146.6
930.838	183.41
931.009	137.88
931.18	169.66
931.35	153.19
931.521	161.71
931.692	122.19
931.863	74.14
932.033	136.14
932.204	114.83
932.374	105.53
932.545	86.35
932.716	161.71
932.886	129.16
933.057	47.6
933.227	64.45
933.398	128.39
933.568	53.6
933.739	30.35
933.909	25.7
934.08	104.75
934.25	2.65
934.421	27.06
934.591	51.86
934.761	47.02
934.932	17.76
935.102	49.73
935.272	13.5
935.443	32.48
935.613	52.05
935.783	72.2
935.953	11.75
936.123	153.19
936.294	10.79
936.464	28.42
936.634	45.08
936.804	12.92
936.974	-4.13
937.144	55.93
937.314	33.26
937.484	24.54
937.655	21.44
937.825	84.6
937.995	21.64
938.165	67.36
938.334	36.75
938.504	70.07
938.674	25.32
938.844	62.32
939.014	92.93
939.184	93.13
939.354	120.25
939.524	121.61
939.694	108.82
939.863	108.24
940.033	158.81
940.203	131.88
940.373	95.84
940.542	125.87
940.712	105.92
940.882	127.61
941.051	103.78
941.221	128.39
941.391	140.79
941.56	78.6
941.73	66.97
941.899	194.85
942.069	59.22
942.238	133.04
942.408	93.32
942.577	110.18
942.747	74.53
942.916	53.22
943.086	78.21
943.255	105.14
943.425	87.51
943.594	61.74
943.763	9.43
943.933	27.84
944.102	10.59
944.271	56.7
944.441	68.33
944.61	44.3
944.779	67.55
944.948	124.13
945.117	16.79
945.287	50.89
945.456	10.4
945.625	23.19
945.794	89.25
945.963	39.85
946.132	69.88
946.301	62.71
946.47	87.7
946.639	6.91
946.808	41.78
946.977	81.12
947.146	103.01
947.315	53.41
947.484	81.12
947.653	74.14
947.822	57.87
947.991	46.63
948.16	140.21
948.329	102.43
948.498	72.59
948.666	74.53
948.835	121.8
949.004	27.64
949.173	10.01
949.341	62.71
949.51	74.53
949.679	106.69
949.847	78.21
950.016	139.43
950.185	94.87
950.353	39.85
950.522	71.82
950.69	106.69
950.859	88.87
951.028	125.68
951.196	71.82
951.365	66.58
951.533	45.66
951.701	71.82
951.87	86.73
952.038	31.13
952.207	64.84
952.375	107.27
952.543	85.77
952.712	54.77
952.88	18.15
953.048	121.61
953.217	85.77
953.385	66.97
953.553	125.29
953.721	36.36
953.89	72.01
954.058	43.14
954.226	68.91
954.394	81.7
954.562	-3.55
954.73	67.94
954.898	39.65
955.067	113.86
955.235	53.41
955.403	90.8
955.571	133.81
955.739	89.06
955.907	37.72
956.075	53.22
956.243	22.22
956.41	102.04
956.578	17.18
956.746	34.42
956.914	52.83
957.082	75.69
957.25	89.06
957.418	63.48
957.585	93.52
957.753	125.29
957.921	17.18
958.089	89.25
958.256	83.63
958.424	86.73
958.592	89.83
958.759	33.45
958.927	103.4
959.095	35.78
959.262	73.17
959.43	55.15
959.597	60.19
959.765	54.77
959.932	38.3
960.1	82.28
960.267	78.4
960.435	69.68
960.602	130.33
960.77	40.43
960.937	22.99
961.104	78.6
961.272	48.95
961.439	32.1
961.606	68.13
961.774	92.74
961.941	49.92
962.108	97.97
962.275	81.7
962.443	121.22
962.61	109.02
962.777	138.66
962.944	123.16
963.111	87.12
963.278	91.58
963.446	91.38
963.613	68.91
963.78	95.84
963.947	102.43
964.114	77.24
964.281	160.16
964.448	105.53
964.615	62.32
964.782	89.06
964.949	105.53
965.116	88.28
965.282	123.74
965.449	105.53
965.616	71.43
965.783	111.34
965.95	118.51
966.117	46.63
966.283	73.17
966.45	80.73
966.617	118.31
966.784	125.1
966.95	104.17
967.117	137.3
967.284	100.1
967.45	74.92
967.617	160.75
967.784	151.45
967.95	150.48
968.117	95.07
968.283	137.88
968.45	197.95
968.616	103.59
968.783	132.65
968.949	135.17
969.116	154.35
969.282	114.63
969.449	109.79
969.615	138.27
969.781	72.98
969.948	122.38
970.114	83.63
970.28	177.99
970.447	114.44
970.613	173.53
970.779	128.78
970.945	135.95
971.112	116.96
971.278	106.5
971.444	92.93
971.61	153.58
971.776	126.26
971.942	133.04
972.108	147.96
972.275	123.35
972.441	121.61
972.607	178.76
972.773	111.73
972.939	130.13
973.105	115.8
973.271	84.41
973.437	96.03
973.602	69.3
973.768	121.03
973.934	103.98
974.1	69.68
974.266	36.17
974.432	137.69
974.598	75.88
974.763	98.17
974.929	83.63
975.095	149.31
975.261	81.7
975.426	75.69
975.592	87.51
975.758	158.42
975.923	56.9
976.089	77.82
976.255	130.52
976.42	124.9
976.586	119.86
976.751	125.48
976.917	165.01
977.082	113.28
977.248	51.28
977.413	30.55
977.579	87.51
977.744	98.17
977.91	52.83
978.075	92.74
978.24	120.64
978.406	95.84
978.571	89.83
978.736	97.97
978.902	115.41
979.067	86.35
979.232	40.62
979.397	102.04
979.563	113.47
979.728	92.35
979.893	88.87
980.058	93.71
980.223	104.95
980.388	107.47
980.554	94.48
980.719	87.32
980.884	102.62
981.049	130.33
981.214	87.51
981.379	110.18
981.544	65.42
981.709	94.48
981.874	84.22
982.039	100.88
982.204	134.01
982.368	94.1
982.533	87.12
982.698	148.15
982.863	155.51
983.028	76.66
983.193	122.96
983.357	111.53
983.522	90.8
983.687	121.41
983.852	87.12
984.016	71.82
984.181	98.94
984.346	93.71
984.51	114.63
984.675	105.33
984.839	119.28
985.004	106.11
985.168	139.43
985.333	123.35
985.498	71.43
985.662	135.95
985.827	114.44
985.991	101.07
986.155	86.73
986.32	116.96
986.484	139.43
986.649	119.48
986.813	41.59
986.977	98.36
987.142	92.55
987.306	79.57
987.47	55.54
987.634	75.69
987.799	113.28
987.963	91.19
988.127	123.16
988.291	151.06
988.455	66.39
988.62	99.33
988.784	103.2
988.948	127.03
989.112	74.33
989.276	123.74
989.44	100.49
989.604	90.22
989.768	100.1
989.932	163.46
990.096	50.5
990.26	78.98
990.424	75.5
990.588	77.63
990.752	154.55
990.915	103.2
991.079	82.47
991.243	82.86
991.407	129.16
991.571	93.13
991.734	122
991.898	124.71
992.062	172.95
992.226	66.2
992.389	68.13
992.553	57.28
992.717	49.53
992.88	94.29
993.044	91.77
993.207	68.72
993.371	92.74
993.535	111.53
993.698	94.1
993.862	111.53
994.025	115.6
994.189	98.55
994.352	67.55
994.515	96.03
994.679	127.42
994.842	68.33
995.006	111.73
995.169	51.86
995.332	59.03
995.496	87.9
995.659	56.7
995.822	56.32
995.985	77.63
996.149	134.78
996.312	96.62
996.475	146.41
996.638	59.42
996.801	109.6
996.964	138.08
997.128	73.37
997.291	47.98
997.454	79.76
997.617	32.87
997.78	112.7
997.943	67.36
998.106	99.91
998.269	70.07
998.432	83.83
998.595	74.72
998.758	11.37
998.92	52.05
999.083	23.96
999.246	55.35
999.409	35.39
999.572	7.3
999.735	49.15
999.897	84.22
1000.06	38.68
1000.223	65.81
1000.386	84.02
1000.548	77.82
1000.711	75.3
1000.874	89.64
1001.036	36.75
1001.199	100.68
1001.361	60.58
1001.524	71.82
1001.687	93.13
1001.849	19.12
1002.012	79.76
1002.174	69.49
1002.337	76.27
1002.499	62.52
1002.661	93.13
1002.824	11.95
1002.986	53.6
1003.149	54.38
1003.311	19.89
1003.473	141.18
1003.636	45.47
1003.798	59.03
1003.96	64.26
1004.123	53.6
1004.285	49.92
1004.447	63.1
1004.609	73.75
1004.771	116.96
1004.933	-11.88
1005.096	21.64
1005.258	13.11
1005.42	24.93
1005.582	89.06
1005.744	73.75
1005.906	22.8
1006.068	47.98
1006.23	15.24
1006.392	23.77
1006.554	33.45
1006.716	80.73
1006.878	73.95
1007.04	12.14
1007.202	39.27
1007.363	38.49
1007.525	65.81
1007.687	82.67
1007.849	115.8
1008.011	7.49
1008.172	38.1
1008.334	57.48
1008.496	38.68
1008.658	13.89
1008.819	48.95
1008.981	12.92
1009.143	20.67
1009.304	50.31
1009.466	78.98
1009.627	76.08
1009.789	138.85
1009.95	35.97
1010.112	21.25
1010.273	47.4
1010.435	24.74
1010.596	32.29
1010.758	43.14
1010.919	13.11
1011.081	12.34
1011.242	31.52
1011.403	54.18
1011.565	38.68
1011.726	75.69
1011.887	-2.39
1012.049	39.07
1012.21	69.68
1012.371	72.98
1012.532	-33
1012.693	27.84
1012.855	14.66
1013.016	17.37
1013.177	76.85
1013.338	25.51
1013.499	68.72
1013.66	37.91
1013.821	70.65
1013.982	70.65
1014.143	53.02
1014.304	32.68
1014.465	56.32
1014.626	42.56
1014.787	27.64
1014.948	103.98
1015.109	-20.8
1015.27	36.55
1015.431	19.5
1015.592	35.78
1015.752	42.17
1015.913	44.5
1016.074	39.65
1016.235	45.47
1016.395	44.5
1016.556	16.79
1016.717	48.76
1016.877	87.32
1017.038	35.97
1017.199	40.23
1017.359	40.62
1017.52	50.12
1017.681	21.83
1017.841	67.94
1018.002	22.6
1018.162	34.23
1018.323	79.95
1018.483	22.6
1018.644	9.62
1018.804	20.28
1018.964	-9.95
1019.125	11.75
1019.285	51.08
1019.446	20.09
1019.606	-7.62
1019.766	-4.71
1019.926	43.92
1020.087	53.6
1020.247	3.42
1020.407	31.32
1020.567	55.35
1020.728	24.54
1020.888	0.32
1021.048	3.04
1021.208	-4.33
1021.368	-12.46
1021.528	75.3
1021.688	64.45
1021.848	41.59
1022.008	29.58
1022.168	43.72
1022.328	24.93
1022.488	50.12
1022.648	14.27
1022.808	20.09
1022.968	20.47
1023.128	20.67
1023.288	-7.23
1023.448	13.89
1023.608	36.55
1023.767	63.29
1023.927	-3.16
1024.087	13.5
1024.247	-19.44
1024.406	16.79
1024.566	-18.47
1024.726	-8.59
1024.885	19.5
1025.045	53.41
1025.205	25.12
1025.364	32.48
1025.524	30.35
1025.683	16.21
1025.843	16.02
1026.003	22.6
1026.162	57.87
1026.321	52.25
1026.481	16.21
1026.64	12.34
1026.8	28.22
1026.959	19.89
1027.119	36.94
1027.278	0.52
1027.437	-3.75
1027.597	15.05
1027.756	42.17
1027.915	31.71
1028.074	16.99
1028.234	-10.33
1028.393	-2.2
1028.552	4.2
1028.711	-71.17
1028.87	57.67
1029.03	-7.81
1029.189	20.28
1029.348	-25.25
1029.507	0.9
1029.666	10.01
1029.825	4.59
1029.984	1.49
1030.143	11.56
1030.302	-0.26
1030.461	-17.11
1030.62	15.05
1030.779	47.6
1030.938	-18.47
1031.097	-43.08
1031.255	25.12
1031.414	41.4
1031.573	46.24
1031.732	-25.25
1031.891	-13.24
1032.049	78.79
1032.208	22.6
1032.367	-0.06
1032.525	-21.18
1032.684	11.75
1032.843	28.42
1033.001	-21.76
1033.16	136.33
1033.319	72.59
1033.477	41.78
1033.636	19.89
1033.794	-22.15
1033.953	22.6
1034.111	39.27
1034.27	-13.63
1034.428	37.91
1034.587	-20.41
1034.745	-4.91
1034.903	-2.39
1035.062	49.15
1035.22	-7.23
1035.378	57.48
1035.537	-25.45
1035.695	29.38
1035.853	20.67
1036.011	25.32
1036.17	36.17
1036.328	-35.33
1036.486	10.4
1036.644	42.56
1036.802	-76.59
1036.96	-25.83
1037.119	6.52
1037.277	20.86
1037.435	-33.39
1037.593	-49.08
1037.751	1.68
1037.909	29
1038.067	29
