Data from oakcork_FLMT105791__230__17-33-01-055.txt Node

Date: Mon Mar 20 17:33:01 GMT 2023
User: antho
Spectrometer: FLMT10579
Trigger mode: 0
Integration Time (sec): 1.000000E-1
Scans to average: 10
Electric dark correction enabled: true
Nonlinearity correction enabled: false
Boxcar width: 0
XAxis mode: Wavelengths
Number of Pixels in Spectrum: 3648
>>>>>Begin Spectral Data<<<<<
345.248	-156.98
345.464	-156.98
345.681	-156.98
345.898	-147.49
346.114	-141.29
346.331	-20
346.548	44.32
346.764	-17.1
346.981	-18.84
347.197	-36.86
347.414	7.7
347.631	-10.32
347.847	83.07
348.064	4.6
348.28	23.98
348.497	-35.31
348.713	-25.24
348.93	32.69
349.146	43.16
349.363	-4.7
349.579	8.28
349.796	-1.4
350.012	6.15
350.229	43.16
350.445	1.31
350.661	-1.02
350.878	3.25
351.094	34.05
351.311	15.65
351.527	38.7
351.743	-4.12
351.96	30.95
352.176	33.08
352.392	-2.95
352.609	32.11
352.825	-0.63
353.041	22.04
353.257	15.84
353.474	2.08
353.69	28.24
353.906	19.33
354.122	-7.22
354.339	60.59
354.555	1.31
354.771	-2.57
354.987	88.49
355.203	82.29
355.42	3.44
355.636	1.31
355.852	-0.82
356.068	9.83
356.284	-32.99
356.5	37.54
356.716	39.09
356.932	-2.76
357.148	26.11
357.364	17.2
357.58	63.69
357.796	55.75
358.012	56.33
358.228	27.66
358.444	-63.4
358.66	52.07
358.876	19.91
359.092	-15.55
359.308	22.43
359.524	48.97
359.74	-17.29
359.956	-6.44
360.172	23.59
360.388	60.59
360.604	-12.45
360.819	99.54
361.035	41.8
361.251	45.09
361.467	-14.39
361.683	53.62
361.898	21.65
362.114	23.98
362.33	44.13
362.546	43.35
362.762	5.57
362.977	24.17
363.193	-7.02
363.409	57.49
363.624	0.53
363.84	-20.97
364.056	12.35
364.271	36.57
364.487	10.03
364.703	24.75
364.918	-13.22
365.134	1.31
365.35	31.34
365.565	114.84
365.781	48
365.996	29.4
366.212	72.61
366.427	25.91
366.643	-9.74
366.858	-17.29
367.074	9.64
367.289	57.88
367.505	103.41
367.72	-12.84
367.936	9.06
368.151	39.28
368.367	38.51
368.582	47.03
368.798	20.1
369.013	60.59
369.228	35.41
369.444	30.76
369.659	73.58
369.874	19.71
370.09	64.08
370.305	-33.76
370.52	-1.21
370.736	76.09
370.951	27.27
371.166	69.51
371.381	67.96
371.597	71.83
371.812	10.61
372.027	15.84
372.242	50.71
372.458	81.13
372.673	16.81
372.888	10.41
373.103	60.4
373.318	96.63
373.533	43.74
373.749	47.81
373.964	-9.15
374.179	58.85
374.394	5.38
374.609	95.66
374.824	-17.29
375.039	83.46
375.254	36.57
375.469	91.98
375.684	45.29
375.899	48.78
376.114	33.08
376.329	36.96
376.544	50.91
376.759	87.91
376.974	38.31
377.189	10.61
377.404	33.28
377.619	63.69
377.834	-15.16
378.049	-18.45
378.264	11
378.478	45.29
378.693	16.81
378.908	72.99
379.123	48.78
379.338	37.93
379.553	38.7
379.767	33.28
379.982	54.2
380.197	48.97
380.412	57.69
380.626	52.65
380.841	112.13
381.056	68.93
381.271	92.56
381.485	28.63
381.7	22.43
381.915	52.46
382.129	35.02
382.344	54.98
382.559	59.63
382.773	53.43
382.988	-27.37
383.202	52.84
383.417	2.08
383.632	86.56
383.846	29.59
384.061	50.33
384.275	3.83
384.49	89.66
384.704	72.61
384.919	32.11
385.133	50.52
385.348	47.03
385.562	9.06
385.777	99.34
385.991	36.18
386.206	51.49
386.42	51.68
386.634	79.39
386.849	73.96
387.063	67.18
387.277	1.11
387.492	23.59
387.706	25.91
387.92	32.89
388.135	91.01
388.349	35.41
388.563	44.32
388.778	51.88
388.992	74.74
389.206	69.89
389.42	105.74
389.635	54.01
389.849	84.62
390.063	100.51
390.277	70.09
390.491	88.11
390.706	64.08
390.92	79.78
391.134	60.21
391.348	86.75
391.562	20.68
391.776	54.39
391.99	38.12
392.205	76.87
392.419	39.09
392.633	48.97
392.847	103.99
393.061	20.88
393.275	101.48
393.489	39.28
393.703	53.43
393.917	87.72
394.131	10.61
394.345	67.76
394.559	103.99
394.773	59.63
394.986	70.48
395.2	52.84
395.414	83.46
395.628	44.71
395.842	69.12
396.056	67.38
396.27	50.71
396.484	94.31
396.697	84.04
396.911	115.62
397.125	83.26
397.339	116.01
397.553	73.77
397.766	120.66
397.98	112.32
398.194	116.39
398.408	97.41
398.621	107.68
398.835	96.63
399.049	91.21
399.262	123.37
399.476	146.42
399.69	128.41
399.903	191.96
400.117	92.56
400.331	127.82
400.544	61.37
400.758	209.97
400.971	130.92
401.185	147.39
401.398	68.73
401.612	175.1
401.826	143.71
402.039	135.19
402.253	115.23
402.466	132.86
402.68	126.27
402.893	133.83
403.106	144.68
403.32	107.48
403.533	152.82
403.747	136.16
403.96	146.42
404.174	155.72
404.387	97.02
404.6	123.37
404.814	174.13
405.027	118.52
405.24	132.67
405.454	129.57
405.667	169.09
405.88	78.81
406.094	122.01
406.307	188.08
406.52	167.74
406.733	122.01
406.947	80.16
407.16	199.32
407.373	186.92
407.586	116.78
407.799	96.05
408.012	175.49
408.226	150.49
408.439	198.54
408.652	99.93
408.865	167.35
409.078	184.98
409.291	173.55
409.504	104.58
409.717	156.5
409.93	162.89
410.143	140.42
410.357	96.05
410.57	112.91
410.783	119.69
410.996	165.61
411.209	153.79
411.421	185.76
411.634	159.99
411.847	142.55
412.06	153.4
412.273	163.47
412.486	186.72
412.699	227.41
412.912	157.47
413.125	200.67
413.338	161.73
413.55	218.89
413.763	176.07
413.976	192.73
414.189	143.13
414.402	166.19
414.615	227.8
414.827	160.37
415.04	181.88
415.253	212.49
415.466	189.44
415.678	215.01
415.891	189.44
416.104	186.72
416.316	183.24
416.529	153.98
416.742	190.21
416.954	222.18
417.167	193.89
417.38	156.31
417.592	219.27
417.805	162.89
418.017	128.6
418.23	197.96
418.442	148.36
418.655	169.48
418.868	175.87
419.08	227.8
419.293	239.04
419.505	207.65
419.718	228.19
419.93	225.09
420.142	179.17
420.355	213.46
420.567	235.55
420.78	212.1
420.992	193.51
421.205	231.29
421.417	164.83
421.629	204.16
421.842	166.77
422.054	176.65
422.266	234.39
422.479	238.07
422.691	192.54
422.903	239.23
423.115	177.81
423.328	192.54
423.54	228.38
423.752	181.88
423.964	191.37
424.177	206.29
424.389	231.87
424.601	298.52
424.813	206.87
425.025	277.59
425.238	243.49
425.45	191.96
425.662	188.66
425.874	477.93
426.086	214.82
426.298	216.56
426.51	243.3
426.722	216.95
426.934	187.69
427.146	263.25
427.358	204.35
427.57	244.07
427.782	186.72
427.994	204.35
428.206	191.57
428.418	177.81
428.63	229.93
428.842	255.12
429.054	220.63
429.266	258.8
429.478	175.87
429.69	217.53
429.902	156.69
430.114	230.9
430.325	219.66
430.537	174.13
430.749	212.1
430.961	147.78
431.173	195.25
431.384	213.85
431.596	143.71
431.808	228.96
432.02	243.69
432.231	256.09
432.443	278.17
432.655	241.94
432.867	248.72
433.078	258.6
433.29	304.33
433.502	291.93
433.713	302.97
433.925	292.9
434.136	291.73
434.348	216.75
434.56	185.56
434.771	334.94
434.983	213.85
435.194	224.5
435.406	245.62
435.617	303.75
435.829	327.77
436.04	296
436.252	310.33
436.463	322.54
436.675	322.93
436.886	290.77
437.098	321.38
437.309	337.46
437.521	296.97
437.732	305.68
437.943	289.22
438.155	286.7
438.366	247.95
438.578	333.2
438.789	258.41
439	315.76
439.211	283.79
439.423	293.67
439.634	309.95
439.845	336.3
440.057	295.22
440.268	372.91
440.479	280.5
440.69	319.05
440.902	286.89
441.113	289.02
441.324	306.46
441.535	323.51
441.746	377.18
441.957	301.81
442.168	325.25
442.38	356.83
442.591	359.55
442.802	326.61
443.013	321.77
443.224	341.33
443.435	319.83
443.646	337.65
443.857	342.5
444.068	331.45
444.279	312.47
444.49	415.35
444.701	357.8
444.912	468.04
445.123	403.53
445.334	391.71
445.545	375.24
445.756	336.49
445.967	335.13
446.178	343.27
446.388	405.66
446.599	393.06
446.81	368.85
447.021	344.82
447.232	383.76
447.443	403.33
447.653	355.67
447.864	404.3
448.075	385.12
448.286	397.33
448.496	412.05
448.707	412.44
448.918	378.34
449.129	446.15
449.339	356.25
449.55	395.2
449.761	400.62
449.971	444.02
450.182	392.48
450.393	418.64
450.603	378.34
450.814	443.63
451.024	413.41
451.235	470.76
451.446	480.25
451.656	469.4
451.867	396.16
452.077	409.34
452.288	484.13
452.498	476.38
452.709	400.04
452.919	440.15
453.13	407.79
453.34	437.05
453.55	355.87
453.761	431.04
453.971	425.61
454.182	444.8
454.392	438.98
454.602	484.71
454.813	435.69
455.023	448.28
455.233	392.1
455.444	415.93
455.654	357.22
455.864	421.93
456.075	454.48
456.285	430.46
456.495	426.97
456.705	438.4
456.916	489.16
457.126	510.86
457.336	460.88
457.546	387.45
457.756	448.86
457.967	513.38
458.177	424.26
458.387	457.39
458.597	394.81
458.807	433.17
459.017	402.95
459.227	393.65
459.437	463.78
459.647	452.35
459.857	461.65
460.068	419.41
460.278	482.19
460.488	456.61
460.698	518.81
460.908	453.9
461.117	449.25
461.327	440.15
461.537	482.77
461.747	478.51
461.957	458.55
462.167	556.78
462.377	488.39
462.587	487.42
462.797	515.9
463.007	475.21
463.216	520.55
463.426	524.81
463.636	512.61
463.846	460.49
464.056	474.44
464.265	503.31
464.475	461.84
464.685	505.24
464.895	501.95
465.104	520.94
465.314	541.28
465.524	489.94
465.733	435.3
465.943	563.56
466.153	565.69
466.362	559.88
466.572	525.78
466.782	513.96
466.991	499.04
467.201	553.68
467.41	454.48
467.62	535.66
467.829	515.71
468.039	531.4
468.249	506.79
468.458	544.19
468.668	541.48
468.877	551.94
469.086	575.77
469.296	581.97
469.505	521.52
469.715	607.16
469.924	583.32
470.134	630.6
470.343	586.81
470.552	543.99
470.762	556.78
470.971	528.49
471.18	555.62
471.39	557.94
471.599	548.06
471.808	612.39
472.018	563.37
472.227	633.89
472.436	624.4
472.645	600.18
472.855	577.32
473.064	643.58
473.273	638.74
473.482	637.77
473.691	650.94
473.901	640.87
474.11	601.34
474.319	670.9
474.528	657.92
474.737	686.2
474.946	658.69
475.155	669.15
475.364	689.3
475.573	655.98
475.783	673.22
475.992	682.52
476.201	674.58
476.41	645.13
476.619	647.26
476.828	673.8
477.037	660.05
477.245	690.66
477.454	711.59
477.663	676.9
477.872	696.67
478.081	761.18
478.29	673.61
478.499	748.59
478.708	742.58
478.917	785.79
479.125	720.5
479.334	727.08
479.543	729.99
479.752	779.78
479.961	759.25
480.169	798.77
480.378	723.4
480.587	886.15
480.796	830.16
481.004	784.63
481.213	810.78
481.422	783.27
481.63	793.54
481.839	845.27
482.048	880.73
482.256	816.01
482.465	849.34
482.674	875.11
482.882	874.53
483.091	896.81
483.299	863.1
483.508	872.98
483.716	887.31
483.925	889.45
484.134	819.7
484.342	886.73
484.551	889.45
484.759	873.36
484.967	899.71
485.176	909.79
485.384	905.33
485.593	897.19
485.801	876.46
486.01	874.72
486.218	832.87
486.426	773.2
486.635	771.84
486.843	791.8
487.051	828.03
487.26	802.07
487.468	839.46
487.676	903.2
487.885	857.67
488.093	917.34
488.301	916.76
488.509	922.38
488.717	926.84
488.926	897.78
489.134	918.89
489.342	910.18
489.55	923.74
489.758	943.5
489.967	943.89
490.175	1043.47
490.383	964.23
490.591	1025.07
490.799	970.82
491.007	1044.64
491.215	1003.95
491.423	981.67
491.631	1007.44
491.839	994.46
492.047	1009.96
492.255	956.09
492.463	934.98
492.671	980.12
492.879	1041.73
493.087	1011.89
493.295	1030.3
493.503	1027.01
493.711	1085.9
493.919	1080.09
494.127	1059.56
494.334	1088.81
494.542	1034.37
494.75	1090.94
494.958	1036.11
495.166	1139.19
495.374	1118.65
495.581	1116.71
495.789	1105.47
495.997	1138.6
496.205	1079.32
496.412	1080.67
496.62	1104.5
496.828	1088.42
497.035	1098.11
497.243	1109.54
497.451	1102.95
497.658	1148.49
497.866	1088.42
498.074	1123.49
498.281	1106.83
498.489	1177.55
498.696	1115.35
498.904	1098.11
499.112	1095.59
499.319	1195.95
499.527	1081.25
499.734	1165.92
499.942	1071.37
500.149	1116.9
500.357	1140.93
500.564	1096.56
500.771	1157.4
500.979	1094.04
501.186	1112.64
501.394	1141.12
501.601	1098.3
501.808	1131.24
502.016	1096.95
502.223	1090.94
502.43	1088.81
502.638	1059.56
502.845	1084.94
503.052	1153.72
503.26	1116.9
503.467	1209.32
503.674	1115.16
503.881	1147.52
504.089	1187.23
504.296	1147.32
504.503	1103.92
504.71	1128.53
504.917	1098.11
505.125	1147.9
505.332	1146.94
505.539	1188.98
505.746	1234.9
505.953	1221.14
506.16	1206.03
506.367	1242.84
506.574	1263.76
506.781	1245.16
506.988	1177.55
507.195	1215.91
507.402	1202.35
507.609	1260.47
507.816	1179.29
508.023	1199.83
508.23	1163.21
508.437	1144.8
508.644	1199.05
508.851	1274.23
509.058	1267.45
509.265	1239.16
509.472	1243.23
509.679	1344.17
509.885	1244.58
510.092	1252.33
510.299	1268.22
510.506	1246.91
510.713	1249.81
510.92	1254.66
511.126	1295.93
511.333	1321.11
511.54	1279.85
511.746	1318.21
511.953	1345.33
512.16	1349.79
512.367	1303.87
512.573	1288.37
512.78	1290.89
512.987	1285.08
513.193	1283.14
513.4	1247.3
513.606	1283.33
513.813	1303.1
514.02	1266.09
514.226	1330.41
514.433	1319.95
514.639	1261.63
514.846	1264.93
515.052	1273.06
515.259	1275.97
515.465	1297.09
515.672	1283.33
515.878	1342.43
516.085	1327.31
516.291	1348.82
516.497	1310.07
516.704	1261.25
516.91	1224.24
517.117	1197.5
517.323	1167.28
517.529	1179.1
517.736	1163.21
517.942	1203.12
518.148	1243.42
518.354	1252.72
518.561	1251.95
518.767	1250.01
518.973	1321.7
519.179	1263.18
519.386	1266.09
519.592	1276.94
519.798	1265.31
520.004	1376.14
520.21	1355.79
520.417	1369.36
520.623	1426.12
520.829	1437.36
521.035	1420.51
521.241	1401.91
521.447	1403.46
521.653	1510.79
521.859	1400.36
522.065	1432.13
522.271	1510.02
522.477	1473.59
522.683	1488.12
522.889	1461
523.095	1462.16
523.301	1443.56
523.507	1425.35
523.713	1488.51
523.919	1429.03
524.125	1510.02
524.331	1467.39
524.537	1533.07
524.742	1543.34
524.948	1538.3
525.154	1551.29
525.36	1634.79
525.566	1535.79
525.772	1578.6
525.977	1512.73
526.183	1573.76
526.389	1569.5
526.595	1475.34
526.8	1498.59
527.006	1452.09
527.212	1425.93
527.417	1367.42
527.623	1430.58
527.829	1457.51
528.034	1528.04
528.24	1518.35
528.446	1486.38
528.651	1592.55
528.857	1582.09
529.062	1638.28
529.268	1595.85
529.473	1607.47
529.679	1609.02
529.884	1706.67
530.09	1671.99
530.295	1665.02
530.501	1640.8
530.706	1684.58
530.912	1620.45
531.117	1659.98
531.323	1675.28
531.528	1715.97
531.733	1708.41
531.939	1662.3
532.144	1721.59
532.35	1679.35
532.555	1722.75
532.76	1693.3
532.966	1677.8
533.171	1660.75
533.376	1644.09
533.581	1602.05
533.787	1667.73
533.992	1698.34
534.197	1699.11
534.402	1701.63
534.607	1699.89
534.813	1804.9
535.018	1706.67
535.223	1713.45
535.428	1745.42
535.633	1771.96
535.838	1781.46
536.043	1777.78
536.249	1849.66
536.454	1761.5
536.659	1830.86
536.864	1764.8
537.069	1759.76
537.274	1808.97
537.479	1816.72
537.684	1799.28
537.889	1740
538.094	1864.19
538.299	1780.68
538.504	1843.07
538.708	1808.39
538.913	1861.09
539.118	1827.57
539.323	1860.12
539.528	1778.74
539.733	1805.48
539.938	1858.37
540.142	1812.26
540.347	1816.91
540.552	1745.61
540.757	1764.99
540.962	1775.06
541.166	1725.27
541.371	1746.2
541.576	1771.19
541.781	1731.66
541.985	1834.93
542.19	1801.61
542.395	1860.51
542.599	1853.34
542.804	1825.63
543.008	1883.37
543.213	1820.98
543.418	1782.81
543.622	1817.88
543.827	1844.43
544.031	1911.85
544.236	1878.33
544.44	1868.06
544.645	1940.52
544.849	1831.64
545.054	1914.37
545.258	1939.17
545.463	1954.67
545.667	1861.09
545.872	1898.67
546.076	1920.18
546.281	1921.54
546.485	1900.42
546.689	1887.82
546.894	1919.21
547.098	1901.39
547.302	1865.54
547.507	1918.24
547.711	1931.61
547.915	1946.34
548.119	1877.94
548.324	1869.22
548.528	1925.61
548.732	1924.83
548.936	1935.68
549.141	1952.73
549.345	1882.01
549.549	1948.66
549.753	1923.86
549.957	2007.56
550.161	1953.31
550.366	1928.9
550.57	1898.09
550.774	1928.32
550.978	1938.2
551.182	1948.27
551.386	1903.91
551.59	1928.51
551.794	1884.34
551.998	1942.07
552.202	1911.66
552.406	1881.24
552.61	1982.18
552.814	1946.53
553.018	2012.21
553.222	1886.86
553.426	1901
553.63	2020.54
553.833	1941.69
554.037	1878.14
554.241	1925.02
554.445	1948.08
554.649	1927.54
554.853	1914.76
555.056	1960.29
555.26	1945.95
555.464	1931.42
555.668	1951.37
555.871	2010.85
556.075	1994.19
556.279	1937.23
556.483	1882.4
556.686	1917.27
556.89	1901.58
557.094	1919.99
557.297	1874.07
557.501	1922.51
557.704	1832.61
557.908	1910.3
558.112	1878.91
558.315	1922.7
558.519	1872.52
558.722	1885.89
558.926	1836.68
559.129	1816.91
559.333	1814.2
559.536	1811.1
559.74	1798.31
559.943	1789.98
560.147	1750.07
560.35	1805.29
560.553	1819.04
560.757	1765.38
560.96	1829.31
561.164	1821.18
561.367	1905.07
561.57	1804.71
561.774	1840.16
561.977	1827.18
562.18	1818.46
562.384	1866.51
562.587	1799.48
562.79	1787.85
562.993	1813.81
563.197	1809.74
563.4	1875.62
563.603	1907.97
563.806	1916.69
564.009	1799.28
564.212	1811.29
564.416	1744.06
564.619	1807.23
564.822	1775.64
565.025	1819.04
565.228	1760.73
565.431	1774.87
565.634	1728.56
565.837	1758.01
566.04	1701.83
566.243	1702.41
566.446	1633.43
566.649	1717.71
566.852	1643.9
567.055	1730.11
567.258	1733.02
567.461	1770.61
567.664	1743.68
567.867	1671.22
568.07	1712.48
568.273	1729.92
568.475	1754.72
568.678	1676.64
568.881	1660.37
569.084	1682.07
569.287	1580.35
569.489	1576.28
569.692	1677.61
569.895	1681.48
570.098	1589.07
570.3	1610.18
570.503	1536.37
570.706	1584.03
570.909	1570.85
571.111	1532.69
571.314	1533.07
571.516	1554.19
571.719	1552.64
571.922	1535.01
572.124	1541.6
572.327	1598.75
572.529	1496.26
572.732	1552.64
572.935	1593.72
573.137	1606.5
573.34	1507.31
573.542	1592.94
573.745	1562.33
573.947	1615.61
574.15	1562.72
574.352	1533.07
574.554	1596.23
574.757	1530.75
574.959	1501.88
575.162	1521.84
575.364	1522.8
575.566	1595.65
575.769	1501.49
575.971	1533.85
576.173	1440.66
576.376	1484.25
576.578	1513.89
576.78	1564.46
576.982	1443.95
577.185	1483.28
577.387	1461.77
577.589	1459.64
577.791	1503.62
577.993	1510.6
578.196	1476.11
578.398	1472.82
578.6	1510.6
578.802	1459.64
579.004	1433.49
579.206	1422.44
579.408	1492.58
579.61	1452.86
579.812	1501.11
580.014	1446.66
580.216	1434.84
580.418	1461.97
580.62	1444.72
580.822	1453.83
581.024	1477.86
581.226	1494.91
581.428	1452.47
581.63	1558.65
581.832	1464.87
582.034	1522.8
582.236	1508.08
582.438	1552.45
582.64	1548.77
582.841	1572.79
583.043	1600.11
583.245	1514.28
583.447	1526.68
583.649	1511.18
583.85	1521.84
584.052	1533.46
584.254	1448.6
584.456	1573.18
584.657	1460.81
584.859	1529.97
585.061	1499.36
585.262	1469.91
585.464	1461.77
585.666	1472.82
585.867	1436.01
586.069	1508.47
586.27	1500.33
586.472	1483.28
586.674	1416.24
586.875	1461
587.077	1485.02
587.278	1463.71
587.48	1440.85
587.681	1571.05
587.883	1475.34
588.084	1388.73
588.285	1422.83
588.487	1398.03
588.688	1436.78
588.89	1346.11
589.091	1303.48
589.292	1330.03
589.494	1278.3
589.695	1277.52
589.896	1208.74
590.098	1241.48
590.299	1306.97
590.5	1260.86
590.702	1296.31
590.903	1331.58
591.104	1369.55
591.305	1381.76
591.507	1402.68
591.708	1382.92
591.909	1369.16
592.11	1427.29
592.311	1402.88
592.512	1360.44
592.714	1305.42
592.915	1348.43
593.116	1327.31
593.317	1373.04
593.518	1356.76
593.719	1368.19
593.92	1378.85
594.121	1385.05
594.322	1319.18
594.523	1343.98
594.724	1313.75
594.925	1305.81
595.126	1299.61
595.327	1360.06
595.528	1344.17
595.729	1318.21
595.929	1301.16
596.13	1368.19
596.331	1390.67
596.532	1355.41
596.733	1450.73
596.934	1387.96
597.135	1380.59
597.335	1383.31
597.536	1304.65
597.737	1329.83
597.938	1336.81
598.138	1375.56
598.339	1355.99
598.54	1380.79
598.74	1344.17
598.941	1329.64
599.142	1385.83
599.342	1361.99
599.543	1329.45
599.744	1318.98
599.944	1365.29
600.145	1356.38
600.345	1350.18
600.546	1420.7
600.746	1395.51
600.947	1415.28
601.147	1383.5
601.348	1402.1
601.548	1351.73
601.749	1358.31
601.949	1314.91
602.15	1302.13
602.35	1311.81
602.551	1379.24
602.751	1320.15
602.951	1318.98
603.152	1293.21
603.352	1376.53
603.552	1355.6
603.753	1366.06
603.953	1397.64
604.153	1353.08
604.354	1366.64
604.554	1341.07
604.754	1367.03
604.954	1311.04
605.155	1343.2
605.355	1328.86
605.555	1379.24
605.755	1371.49
605.955	1355.6
606.155	1364.51
606.356	1334.68
606.556	1380.4
606.756	1349.01
606.956	1294.38
607.156	1421.28
607.356	1341.46
607.556	1369.55
607.756	1326.73
607.956	1408.88
608.156	1337
608.356	1298.45
608.556	1350.76
608.756	1329.83
608.956	1314.14
609.156	1341.65
609.356	1311.62
609.556	1280.23
609.755	1337.58
609.955	1290.11
610.155	1302.13
610.355	1336.23
610.555	1313.36
610.755	1322.66
610.954	1264.54
611.154	1333.9
611.354	1320.73
611.554	1265.9
611.753	1301.93
611.953	1286.24
612.153	1307.16
612.352	1323.44
612.552	1278.49
612.752	1224.24
612.951	1297.86
613.151	1282.56
613.351	1270.93
613.55	1271.32
613.75	1300.96
613.949	1279.07
614.149	1261.63
614.348	1223.27
614.548	1185.68
614.747	1185.68
614.947	1243.23
615.146	1194.79
615.346	1272.29
615.545	1253.69
615.745	1261.83
615.944	1271.71
616.144	1247.3
616.343	1259.5
616.542	1242.65
616.742	1255.82
616.941	1230.05
617.14	1144.8
617.34	1215.33
617.539	1219.4
617.738	1201.57
617.938	1291.08
618.137	1225.98
618.336	1180.45
618.535	1259.5
618.734	1212.42
618.934	1237.8
619.133	1202.93
619.332	1244.2
619.531	1241.87
619.73	1225.21
619.929	1276.16
620.128	1252.53
620.328	1296.9
620.527	1237.61
620.726	1217.27
620.925	1231.6
621.124	1181.62
621.323	1219.2
621.522	1183.36
621.721	1186.85
621.92	1187.23
622.119	1231.8
622.318	1189.95
622.517	1183.17
622.715	1191.88
622.914	1129.89
623.113	1155.65
623.312	1147.13
623.511	1202.93
623.71	1165.34
623.909	1151.59
624.107	1202.73
624.306	1136.86
624.505	1138.41
624.704	1177.35
624.902	1156.62
625.101	1161.47
625.3	1145.39
625.499	1129.11
625.697	1135.12
625.896	1119.81
626.095	1159.33
626.293	1069.05
626.492	1132.4
626.69	1159.14
626.889	1098.89
627.088	1145.97
627.286	1084.35
627.485	1087.84
627.683	1086.1
627.882	1112.84
628.08	1058.39
628.279	1097.34
628.477	1121.36
628.676	1054.32
628.874	1110.7
629.073	1036.5
629.271	1039.02
629.469	1084.94
629.668	1048.51
629.866	1049.87
630.065	1031.27
630.263	1060.33
630.461	1016.54
630.66	1045.41
630.858	1095.01
631.056	1121.36
631.254	1112.25
631.453	1061.11
631.651	1092.1
631.849	1065.56
632.047	1095.79
632.245	1054.32
632.444	1104.12
632.642	1092.88
632.84	1107.6
633.038	1076.8
633.236	1040.76
633.434	1059.56
633.632	1070.21
633.83	1061.69
634.028	1130.47
634.227	1085.9
634.425	1155.07
634.623	1099.66
634.821	1097.92
635.019	1117.1
635.216	1091.14
635.414	1157.4
635.612	1103.92
635.81	1088.81
636.008	1138.02
636.206	1089.59
636.404	1115.55
636.602	1064.01
636.8	1090.75
636.997	1113.61
637.195	1150.81
637.393	1122.52
637.591	1152.36
637.789	1107.22
637.986	1126.2
638.184	1110.32
638.382	1154.88
638.58	1118.26
638.777	1178.9
638.975	1128.72
639.173	1075.83
639.37	1094.04
639.568	1114.19
639.765	1106.25
639.963	1111.87
640.161	1119.62
640.358	1137.05
640.556	1043.67
640.753	1048.32
640.951	1060.33
641.148	1120.39
641.346	1073.12
641.543	1063.43
641.741	1083.19
641.938	1066.92
642.136	1074.09
642.333	1025.26
642.531	1148.1
642.728	1145.19
642.925	1079.51
643.123	1061.11
643.32	1086.49
643.517	1039.6
643.715	1098.3
643.912	1052.77
644.109	1117.49
644.306	1045.99
644.504	1045.99
644.701	1071.76
644.898	1079.7
645.095	1043.67
645.293	1076.22
645.49	1089.78
645.687	1058.01
645.884	1118.07
646.081	1010.34
646.278	1035.14
646.475	1073.31
646.672	1040.37
646.87	1022.16
647.067	1036.5
647.264	1041.73
647.461	952.8
647.658	961.33
647.855	1035.92
648.052	1008.41
648.249	943.69
648.446	966.94
648.642	915.41
648.839	943.89
649.036	980.89
649.233	935.94
649.43	966.17
649.627	891.19
649.824	976.24
650.021	964.23
650.217	952.99
650.414	955.71
650.611	997.17
650.808	1023.32
651.004	1001.24
651.201	1010.15
651.398	1056.07
651.595	997.36
651.791	961.52
651.988	1008.41
652.185	931.68
652.381	1008.99
652.578	917.54
652.775	969.27
652.971	973.14
653.168	958.23
653.364	993.29
653.561	904.17
653.757	967.91
653.954	984.96
654.15	971.59
654.347	1004.14
654.543	969.46
654.74	886.73
654.936	921.99
655.133	953.19
655.329	950.48
655.525	953.96
655.722	946.21
655.918	902.23
656.115	902.81
656.311	818.15
656.507	792.77
656.704	789.67
656.9	808.65
657.096	827.06
657.292	843.14
657.489	886.35
657.685	880.15
657.881	861.16
658.077	901.84
658.273	863.29
658.47	938.27
658.666	899.33
658.862	909.98
659.058	923.54
659.254	923.93
659.45	889.45
659.646	959
659.842	915.21
660.038	946.79
660.234	892.74
660.43	911.92
660.626	987.29
660.822	972.56
661.018	950.28
661.214	951.64
661.41	898.16
661.606	990.19
661.802	952.41
661.998	941.37
662.194	939.63
662.39	938.27
662.586	942.73
662.781	953.77
662.977	974.5
663.173	962.49
663.369	945.24
663.564	964.43
663.76	991.36
663.956	908.24
664.152	953.96
664.347	876.66
664.543	940.59
664.739	917.54
664.934	862.13
665.13	888.28
665.326	949.12
665.521	935.94
665.717	880.15
665.912	863.1
666.108	860
666.304	897.39
666.499	909.01
666.695	840.43
666.89	898.16
667.086	928.39
667.281	929.16
667.477	977.02
667.672	914.63
667.867	925.87
668.063	919.09
668.258	875.69
668.454	917.73
668.649	988.26
668.844	899.71
669.04	927.81
669.235	903.2
669.43	901.07
669.626	861.74
669.821	884.6
670.016	860.77
670.211	898.74
670.407	856.9
670.602	899.33
670.797	848.18
670.992	919.48
671.187	850.7
671.382	906.88
671.578	871.23
671.773	863.68
671.968	850.11
672.163	874.53
672.358	884.6
672.553	823.76
672.748	837.13
672.943	916.76
673.138	901.84
673.333	867.36
673.528	847.4
673.723	877.63
673.918	836.94
674.113	841.4
674.308	927.03
674.503	902.04
674.698	900.88
674.892	881.5
675.087	898.94
675.282	874.14
675.477	872.59
675.672	862.13
675.867	843.53
676.061	849.34
676.256	829.19
676.451	837.71
676.646	872.01
676.84	838.68
677.035	826.86
677.23	819.7
677.424	858.25
677.619	896.42
677.814	921.22
678.008	912.89
678.203	825.31
678.397	824.93
678.592	871.81
678.787	911.14
678.981	863.68
679.176	866.78
679.37	885.18
679.565	850.31
679.759	844.5
679.954	878.98
680.148	886.73
680.342	910.37
680.537	885.18
680.731	866.97
680.926	882.28
681.12	882.28
681.314	811.56
681.509	856.9
681.703	870.26
681.897	887.7
682.092	836.36
682.286	831.32
682.48	885.38
682.674	903.98
682.869	853.41
683.063	839.26
683.257	884.02
683.451	832.1
683.645	853.41
683.839	864.06
684.034	813.3
684.228	859.61
684.422	831.71
684.616	795.67
684.81	860
685.004	808.85
685.198	808.26
685.392	868.33
685.586	830.16
685.78	832.29
685.974	856.9
686.168	836.16
686.362	862.32
686.556	769.52
686.75	708.87
686.944	745.49
687.138	701.51
687.331	604.25
687.525	614.52
687.719	573.25
687.913	611.81
688.107	629.24
688.301	577.71
688.494	637.19
688.688	613.36
688.882	595.53
689.076	605.41
689.269	639.51
689.463	680.39
689.657	604.83
689.85	643
690.044	640.67
690.238	641.25
690.431	630.02
690.625	624.21
690.818	683.1
691.012	705.97
691.205	716.82
691.399	698.6
691.593	729.02
691.786	753.43
691.98	765.83
692.173	758.67
692.366	776.68
692.56	786.18
692.753	793.54
692.947	732.12
693.14	799.93
693.333	802.65
693.527	752.08
693.72	775.52
693.914	752.08
694.107	760.02
694.3	771.84
694.493	781.72
694.687	835
694.88	772.62
695.073	834.81
695.266	816.6
695.46	806.91
695.653	865.03
695.846	835.39
696.039	795.09
696.232	805.17
696.425	868.71
696.618	838.3
696.812	871.04
697.005	909.59
697.198	981.28
697.391	936.53
697.584	965.98
697.777	977.6
697.97	962.68
698.163	985.74
698.356	917.54
698.549	1046.19
698.742	1022.94
698.935	941.95
699.127	992.52
699.32	981.28
699.513	960.94
699.706	1008.6
699.899	991.36
700.092	1011.31
700.285	1010.54
700.477	962.88
700.67	1037.08
700.863	1026.04
701.056	1093.27
701.248	1063.62
701.441	1092.88
701.634	1026.62
701.826	1145
702.019	1065.95
702.212	1102.37
702.404	1058.78
702.597	1076.99
702.79	1122.14
702.982	1164.18
703.175	1144.8
703.367	1157.79
703.56	1170.18
703.752	1236.25
703.945	1217.46
704.137	1236.25
704.33	1228.12
704.522	1246.33
704.715	1246.91
704.907	1287.98
705.1	1301.35
705.292	1311.62
705.484	1276.75
705.677	1344.94
705.869	1350.95
706.061	1360.25
706.254	1399.97
706.446	1340.29
706.638	1333.71
706.831	1442.21
707.023	1392.8
707.215	1493.55
707.407	1464.49
707.599	1450.92
707.792	1474.76
707.984	1474.17
708.176	1522.61
708.368	1522.8
708.56	1504.4
708.752	1526.29
708.944	1506.92
709.136	1568.92
709.329	1548.96
709.521	1668.7
709.713	1620.65
709.905	1601.08
710.097	1654.17
710.289	1599.92
710.481	1645.83
710.672	1635.18
710.864	1665.79
711.056	1743.48
711.248	1710.74
711.44	1704.93
711.632	1713.84
711.824	1722.95
712.016	1772.74
712.207	1764.8
712.399	1812.46
712.591	1847.72
712.783	1810.52
712.975	1857.21
713.166	1804.32
713.358	1857.6
713.55	1905.26
713.741	1893.64
713.933	1906.42
714.125	1911.85
714.316	1858.37
714.508	1970.36
714.7	1964.16
714.891	1945.75
715.083	2016.28
715.274	1953.12
715.466	1992.64
715.657	1983.34
715.849	1935.49
716.04	1986.64
716.232	1925.61
716.423	1926.96
716.615	1894.22
716.806	1858.76
716.998	1849.66
717.189	1773.13
717.381	1692.72
717.572	1677.03
717.763	1696.21
717.955	1675.48
718.146	1663.27
718.337	1590.42
718.528	1572.99
718.72	1540.44
718.911	1595.85
719.102	1527.45
719.293	1546.05
719.485	1589.84
719.676	1529.2
719.867	1531.52
720.058	1528.23
720.249	1520.87
720.44	1579.57
720.632	1619.48
720.823	1681.68
721.014	1773.13
721.205	1814.2
721.396	1886.66
721.587	1976.56
721.778	2000.2
721.969	2049.41
722.16	2108.31
722.351	2106.76
722.542	2224.36
722.733	2261.76
722.924	2175.15
723.115	2205.38
723.305	2181.16
723.496	2206.34
723.687	2065.68
723.878	2126.91
724.069	2148.22
724.26	2113.54
724.45	2040.11
724.641	2051.93
724.832	2085.83
725.023	2096.1
725.213	2040.11
725.404	2049.02
725.595	2079.05
725.785	2054.25
725.976	2130.2
726.167	2112.77
726.357	2126.33
726.548	2234.05
726.739	2172.63
726.929	2207.31
727.12	2269.51
727.31	2261.56
727.501	2212.35
727.691	2240.44
727.882	2251.29
728.072	2286.36
728.263	2317.75
728.453	2343.52
728.644	2347.97
728.834	2338.48
729.024	2298.57
729.215	2293.53
729.405	2369.09
729.596	2399.9
729.786	2423.54
729.976	2450.85
730.167	2503.55
730.357	2408.42
730.547	2445.24
730.737	2469.65
730.928	2505.1
731.118	2568.07
731.308	2510.14
731.498	2529.9
731.688	2622.71
731.879	2609.15
732.069	2715.9
732.259	2709.51
732.449	2770.92
732.639	2842.03
732.829	2838.54
733.019	2894.92
733.209	2981.92
733.399	2980.56
733.589	3000.13
733.779	3104.17
733.969	3075.11
734.159	3109.79
734.349	3177.41
734.539	3252.39
734.729	3256.45
734.919	3262.27
735.109	3280.48
735.299	3230.3
735.488	3288.23
735.678	3299.27
735.868	3266.34
736.058	3276.99
736.248	3313.22
736.437	3278.74
736.627	3234.76
736.817	3372.32
737.007	3329.11
737.196	3373.67
737.386	3373.67
737.576	3318.84
737.765	3382.78
737.955	3414.55
738.144	3506.97
738.334	3473.26
738.524	3401.96
738.713	3483.53
738.903	3454.85
739.092	3490.7
739.282	3446.71
739.471	3480.04
739.661	3472.87
739.85	3593.19
740.04	3566.64
740.229	3534.87
740.419	3615.08
740.608	3644.14
740.797	3618.96
740.987	3708.66
741.176	3634.07
741.365	3635.81
741.555	3580.4
741.744	3726.49
741.933	3698.97
742.123	3714.86
742.312	3729.59
742.501	3761.36
742.69	3792.36
742.88	3685.02
743.069	3786.16
743.258	3782.87
743.447	3860.37
743.636	3796.04
743.825	3792.94
744.014	3802.63
744.204	3865.6
744.393	3778.22
744.582	3835.76
744.771	3891.36
744.96	3878.19
745.149	3856.3
745.338	3838.28
745.527	3922.56
745.716	3890.2
745.905	3795.85
746.094	3903.76
746.283	3923.53
746.471	3918.1
746.66	3946.39
746.849	3947.16
747.038	3953.75
747.227	3906.09
747.416	3975.64
747.604	3911.32
747.793	3868.31
747.982	3884
748.171	3964.6
748.359	3954.72
748.548	3908.8
748.737	3940.77
748.926	3900.08
749.114	3858.43
749.303	3906.86
749.491	3892.14
749.68	3845.83
749.869	3905.12
750.057	3847.77
750.246	3854.75
750.434	3872.38
750.623	3843.12
750.811	3856.49
751	3908.41
751.188	3861.14
751.377	3835.95
751.565	3850.1
751.754	3830.72
751.942	3792.75
752.131	3867.53
752.319	3838.47
752.507	3809.99
752.696	3887.49
752.884	3859.78
753.072	3802.24
753.261	3822.39
753.449	3864.43
753.637	3817.55
753.825	3970.22
754.014	3820.26
754.202	3864.43
754.39	3882.84
754.578	3878.38
754.766	3803.4
754.955	3765.24
755.143	3875.86
755.331	3795.85
755.519	3837.89
755.707	3765.62
755.895	3818.71
756.083	3828.4
756.271	3778.99
756.459	3801.47
756.647	3801.66
756.835	3754.77
757.023	3771.24
757.211	3730.17
757.399	3760
757.587	3693.74
757.775	3702.46
757.963	3722.61
758.151	3704.59
758.339	3669.33
758.526	3689.67
758.714	3676.31
758.902	3563.35
759.09	3415.33
759.278	3239.02
759.465	2959.25
759.653	2557.03
759.841	2298.96
760.028	1982.57
760.216	1738.64
760.404	1615.8
760.591	1332.16
760.779	1116.52
760.967	970.63
761.154	788.7
761.342	852.44
761.529	847.79
761.717	913.47
761.905	911.73
762.092	981.86
762.28	883.25
762.467	871.81
762.655	814.66
762.842	840.62
763.029	840.43
763.217	851.08
763.404	866.78
763.592	883.63
763.779	847.6
763.966	913.86
764.154	933.81
764.341	1008.79
764.528	1019.26
764.716	1063.24
764.903	1139.96
765.09	1223.47
765.277	1253.5
765.465	1441.82
765.652	1481.92
765.839	1543.54
766.026	1718.68
766.213	1789.98
766.4	1897.71
766.588	2092.62
766.775	2119.16
766.962	2240.64
767.149	2301.86
767.336	2450.27
767.523	2455.89
767.71	2587.25
767.897	2723.46
768.084	2786.04
768.271	2851.52
768.458	2903.64
768.645	2991.6
768.832	2943.17
769.019	3005.36
769.206	3099.33
769.392	3112.11
769.579	3192.71
769.766	3204.72
769.953	3176.63
770.14	3227.39
770.327	3219.45
770.513	3267.89
770.7	3335.31
770.887	3228.94
771.073	3307.02
771.26	3286.87
771.447	3261.49
771.634	3267.3
771.82	3359.53
772.007	3276.41
772.193	3335.7
772.38	3323.3
772.567	3297.34
772.753	3277.77
772.94	3363.02
773.126	3347.52
773.313	3340.74
773.499	3329.5
773.686	3378.52
773.872	3288.81
774.059	3311.09
774.245	3312.25
774.432	3286.49
774.618	3181.67
774.804	3297.53
774.991	3216.54
775.177	3308.57
775.363	3271.37
775.55	3264.01
775.736	3208.79
775.922	3256.07
776.109	3231.27
776.295	3259.55
776.481	3281.64
776.667	3264.01
776.853	3227.78
777.04	3211.89
777.226	3250.26
777.412	3283.97
777.598	3199.88
777.784	3195.42
777.97	3183.41
778.156	3214.99
778.342	3205.11
778.528	3190
778.715	3123.35
778.901	3151.25
779.087	3200.27
779.272	3101.84
779.458	3141.37
779.644	3157.26
779.83	3137.49
780.016	3252.97
780.202	3079.37
780.388	3155.13
780.574	2996.64
780.76	3115.02
780.946	3158.23
781.131	3135.36
781.317	3110.76
781.503	3025.7
781.689	3049.73
781.874	3157.26
782.06	3022.41
782.246	3106.3
782.432	3028.8
782.617	3069.49
782.803	3073.95
782.989	2998.19
783.174	3018.15
783.36	2948.01
783.545	2995.67
783.731	3009.43
783.916	2890.47
784.102	2993.54
784.288	2930.77
784.473	2950.72
784.659	2920.11
784.844	2984.24
785.029	2942
785.215	2955.57
785.4	2865.67
785.586	2965.25
785.771	2860.63
785.956	2937.74
786.142	2874.77
786.327	2880.39
786.512	2863.54
786.698	2844.55
786.883	2793.01
787.068	2829.24
787.254	2865.86
787.439	2847.07
787.624	2823.62
787.809	2780.61
787.994	2791.85
788.18	2848.81
788.365	2749.81
788.55	2767.82
788.735	2761.62
788.92	2731.59
789.105	2736.05
789.29	2763.56
789.475	2707.18
789.66	2684.32
789.845	2691.29
790.03	2647.12
790.215	2705.44
790.4	2695.94
790.585	2744.57
790.77	2661.84
790.955	2627.94
791.14	2704.28
791.325	2731.59
791.51	2581.05
791.695	2622.9
791.879	2599.85
792.064	2596.16
792.249	2714.54
792.434	2656.61
792.618	2665.33
792.803	2693.62
792.988	2672.69
793.173	2664.17
793.357	2686.64
793.542	2604.11
793.727	2622.51
793.911	2698.85
794.096	2639.76
794.281	2719.39
794.465	2707.18
794.65	2669.79
794.834	2712.41
795.019	2731.79
795.203	2744.77
795.388	2729.27
795.572	2748.26
795.757	2737.41
795.941	2746.71
796.126	2682.77
796.31	2588.03
796.494	2669.79
796.679	2658.94
796.863	2629.68
797.048	2732.17
797.232	2724.62
797.416	2685.09
797.601	2690.52
797.785	2739.92
797.969	2719.78
798.153	2745.93
798.338	2731.21
798.522	2795.72
798.706	2770.15
798.89	2723.07
799.074	2822.07
799.258	2772.86
799.443	2743.8
799.627	2740.31
799.811	2787.39
799.995	2708.34
800.179	2659.91
800.363	2734.89
800.547	2709.31
800.731	2738.37
800.915	2670.95
801.099	2639.76
801.283	2717.84
801.467	2700.59
801.651	2656.23
801.835	2731.01
802.019	2697.3
802.202	2657.58
802.386	2614.76
802.57	2652.16
802.754	2651.58
802.938	2598.68
803.121	2654.09
803.305	2738.57
803.489	2654.68
803.673	2679.67
803.856	2698.85
804.04	2696.14
804.224	2735.66
804.407	2672.5
804.591	2631.04
804.775	2644.99
804.958	2680.83
805.142	2777.51
805.326	2669.59
805.509	2695.36
805.693	2722.1
805.876	2738.96
806.06	2700.4
806.243	2707.38
806.427	2737.02
806.61	2768.6
806.794	2718.61
806.977	2772.86
807.16	2750.19
807.344	2738.37
807.527	2702.73
807.71	2706.02
807.894	2729.85
808.077	2723.84
808.26	2655.45
808.444	2652.93
808.627	2702.53
808.81	2644.02
808.993	2591.13
809.177	2598.3
809.36	2593.06
809.543	2632.2
809.726	2532.03
809.909	2533.58
810.092	2506.85
810.276	2537.85
810.459	2540.56
810.642	2513.05
810.825	2470.81
811.008	2467.9
811.191	2406.68
811.374	2394.86
811.557	2378.59
811.74	2438.26
811.923	2396.02
812.106	2329.96
812.289	2352.82
812.472	2328.79
812.654	2298.37
812.837	2264.08
813.02	2239.67
813.203	2201.5
813.386	2082.35
813.569	2120.51
813.751	2068.98
813.934	2071.11
814.117	2058.32
814.3	2006.59
814.482	1952.34
814.665	1908.56
814.848	1878.72
815.03	1853.34
815.213	1836.68
815.396	1808.97
815.578	1766.15
815.761	1741.74
815.943	1820.21
816.126	1717.33
816.309	1681.29
816.491	1593.72
816.674	1549.15
816.856	1626.46
817.039	1627.62
817.221	1710.16
817.403	1666.76
817.586	1649.9
817.768	1672.57
817.951	1566.79
818.133	1560.39
818.315	1605.53
818.498	1658.82
818.68	1676.64
818.862	1674.12
819.045	1697.18
819.227	1673.93
819.409	1674.12
819.591	1624.91
819.774	1686.13
819.956	1652.03
820.138	1698.15
820.32	1740.38
820.502	1754.53
820.684	1864.38
820.866	1831.64
821.048	1882.79
821.231	1890.92
821.413	1896.93
821.595	1911.07
821.777	1931.03
821.959	1866.32
822.141	1936.84
822.323	1810.52
822.505	1739.03
822.686	1669.86
822.868	1615.61
823.05	1487.35
823.232	1443.56
823.414	1441.24
823.596	1508.47
823.778	1448.79
823.96	1534.62
824.141	1469.52
824.323	1533.07
824.505	1590.23
824.687	1669.47
824.868	1713.06
825.05	1809.74
825.232	1821.18
825.413	1918.82
825.595	1842.68
825.777	1778.94
825.958	1869.03
826.14	1783.2
826.321	1884.14
826.503	1857.99
826.685	1871.36
826.866	1881.43
827.048	1876.97
827.229	1765.18
827.411	1732.25
827.592	1739.8
827.773	1739.8
827.955	1671.8
828.136	1680.52
828.318	1658.82
828.499	1680.13
828.68	1607.86
828.862	1665.79
829.043	1684.39
829.224	1623.94
829.406	1602.43
829.587	1653.97
829.768	1633.05
829.949	1664.63
830.131	1617.35
830.312	1738.64
830.493	1644.09
830.674	1688.65
830.855	1640.41
831.036	1641.96
831.218	1724.5
831.399	1754.33
831.58	1670.25
831.761	1677.03
831.942	1650.1
832.123	1646.22
832.304	1583.45
832.485	1625.88
832.666	1643.32
832.847	1696.6
833.028	1654.75
833.209	1632.08
833.389	1608.05
833.57	1594.1
833.751	1623.55
833.932	1707.25
834.113	1648.74
834.294	1624.72
834.475	1678.38
834.655	1718.68
834.836	1712.68
835.017	1694.46
835.198	1595.65
835.378	1685.36
835.559	1717.52
835.74	1704.54
835.92	1657.07
836.101	1669.86
836.281	1716.94
836.462	1723.91
836.643	1695.24
836.823	1758.6
837.004	1746.78
837.184	1775.26
837.365	1756.08
837.545	1760.73
837.726	1741.93
837.906	1789.98
838.087	1745.42
838.267	1703.96
838.448	1706.86
838.628	1715.78
838.808	1723.72
838.989	1814.59
839.169	1716.55
839.349	1717.71
839.53	1774.29
839.71	1757.05
839.89	1726.05
840.07	1787.66
840.251	1724.11
840.431	1782.04
840.611	1744.45
840.791	1744.84
840.971	1754.33
841.151	1723.91
841.332	1683.23
841.512	1776.81
841.692	1691.95
841.872	1714.61
842.052	1682.07
842.232	1769.06
842.412	1668.5
842.592	1717.33
842.772	1737.67
842.952	1728.37
843.132	1702.02
843.312	1695.63
843.492	1672.18
843.672	1730.89
843.851	1656.88
844.031	1707.64
844.211	1710.55
844.391	1682.45
844.571	1677.42
844.751	1696.79
844.93	1667.73
845.11	1678
845.29	1680.32
845.47	1678.38
845.649	1683.61
845.829	1725.66
846.009	1709.58
846.188	1676.83
846.368	1693.5
846.547	1672.96
846.727	1704.73
846.907	1675.09
847.086	1639.83
847.266	1724.69
847.445	1669.47
847.625	1661.53
847.804	1655.13
847.984	1646.03
848.163	1635.57
848.343	1627.62
848.522	1647
848.701	1656.1
848.881	1611.73
849.06	1630.92
849.239	1651.07
849.419	1633.24
849.598	1535.2
849.777	1540.82
849.957	1567.37
850.136	1482.51
850.315	1489.29
850.494	1508.85
850.674	1490.45
850.853	1560.78
851.032	1498.78
851.211	1591.78
851.39	1525.9
851.569	1477.66
851.748	1494.91
851.927	1572.4
852.107	1532.69
852.286	1488.12
852.465	1474.37
852.644	1543.54
852.823	1521.06
853.002	1549.15
853.181	1498.2
853.359	1518.93
853.538	1447.44
853.717	1535.98
853.896	1417.99
854.075	1388.93
854.254	1324.21
854.433	1271.9
854.611	1308.91
854.79	1278.68
854.969	1344.36
855.148	1356.18
855.327	1288.95
855.505	1376.33
855.684	1355.6
855.863	1388.54
856.041	1347.46
856.22	1426.71
856.399	1379.63
856.577	1470.69
856.756	1449.37
856.934	1553.22
857.113	1547.41
857.291	1492.97
857.47	1374.78
857.648	1462.74
857.827	1450.73
858.005	1509.05
858.184	1425.93
858.362	1547.41
858.541	1453.83
858.719	1436.01
858.898	1451.31
859.076	1453.64
859.254	1502.27
859.433	1422.44
859.611	1439.11
859.789	1368
859.967	1469.72
860.146	1524.74
860.324	1415.28
860.502	1392.41
860.68	1367.81
860.859	1368
861.037	1399.78
861.215	1440.27
861.393	1406.17
861.571	1409.66
861.749	1374.98
861.927	1429.81
862.105	1406.36
862.283	1365.87
862.461	1349.98
862.639	1318.4
862.817	1359.86
862.995	1358.89
863.173	1337.39
863.351	1390.67
863.529	1371.68
863.707	1380.21
863.885	1379.63
864.063	1310.65
864.241	1341.26
864.418	1421.67
864.596	1342.04
864.774	1311.43
864.952	1342.81
865.129	1342.43
865.307	1296.9
865.485	1249.62
865.663	1318.6
865.84	1241.29
866.018	1269
866.196	1127.56
866.373	1182
866.551	1137.44
866.728	1104.31
866.906	1137.83
867.084	1178.9
867.261	1211.65
867.439	1215.72
867.616	1254.66
867.794	1229.08
867.971	1227.53
868.149	1228.7
868.326	1265.9
868.503	1261.44
868.681	1262.21
868.858	1219.4
869.035	1202.54
869.213	1239.93
869.39	1222.5
869.567	1288.37
869.745	1211.65
869.922	1236.25
870.099	1265.7
870.276	1259.11
870.454	1235.67
870.631	1289.34
870.808	1214.55
870.985	1308.71
871.162	1262.6
871.339	1247.1
871.517	1209.32
871.694	1190.53
871.871	1202.73
872.048	1192.85
872.225	1163.4
872.402	1205.83
872.579	1201.18
872.756	1226.57
872.933	1168.05
873.11	1198.08
873.287	1194.4
873.463	1184.91
873.64	1142.87
873.817	1185.68
873.994	1175.61
874.171	1152.75
874.348	1169.02
874.524	1161.08
874.701	1180.07
874.878	1110.9
875.055	1166.5
875.231	1159.92
875.408	1162.82
875.585	1098.69
875.762	1127.95
875.938	1147.71
876.115	1114.19
876.291	1110.32
876.468	1113.22
876.645	1098.69
876.821	1125.24
876.998	1097.92
877.174	1124.27
877.351	1098.89
877.527	1079.51
877.704	1117.87
877.88	1126.59
878.057	1065.17
878.233	1128.53
878.409	1068.66
878.586	1113.61
878.762	1091.72
878.938	1081.64
879.115	1004.14
879.291	1057.62
879.467	1017.71
879.644	1029.91
879.82	1071.18
879.996	1054.13
880.172	1004.34
880.349	1061.88
880.525	1078.54
880.701	1005.5
880.877	1011.31
881.053	1046.38
881.229	1013.06
881.405	1084.94
881.581	1027.2
881.757	1083.39
881.933	1062.66
882.109	1045.02
882.285	1034.17
882.461	982.83
882.637	1024.29
882.813	992.71
882.989	1040.37
883.165	1082.03
883.341	1006.08
883.517	1063.24
883.693	1059.17
883.869	1058.39
884.044	1030.88
884.22	1077.38
884.396	1072.73
884.572	1068.47
884.747	1064.79
884.923	1059.56
885.099	1048.9
885.275	1097.53
885.45	1002.79
885.626	1046.57
885.801	1010.15
885.977	994.07
886.153	959.19
886.328	1015.38
886.504	1018.29
886.679	1039.02
886.855	1030.69
887.03	1026.62
887.206	1037.66
887.381	1019.26
887.557	1053.36
887.732	1036.31
887.908	1047.74
888.083	1043.28
888.258	994.84
888.434	1041.34
888.609	1024.49
888.784	1048.32
888.96	1018.67
889.135	1002.4
889.31	985.35
889.485	1030.49
889.661	1015.19
889.836	1055.49
890.011	1060.91
890.186	1019.45
890.361	993.49
890.537	1043.28
890.712	1075.64
890.887	1047.74
891.062	1014.8
891.237	1070.99
891.412	996.78
891.587	1074.86
891.762	1066.72
891.937	1087.84
892.112	987.48
892.287	1058.59
892.462	967.14
892.637	953.77
892.812	928.39
892.987	927.81
893.161	941.56
893.336	948.93
893.511	968.49
893.686	930.13
893.861	914.44
894.035	920.44
894.21	908.04
894.385	848.95
894.56	906.49
894.734	854.57
894.909	842.75
895.084	851.47
895.258	825.31
895.433	854.57
895.608	807.68
895.782	784.43
895.957	776.88
896.131	802.65
896.306	711.78
896.48	731.73
896.655	692.6
896.829	664.89
897.004	639.7
897.178	680.59
897.353	686.79
897.527	694.73
897.701	655.4
897.876	646.87
898.05	753.43
898.224	709.26
898.399	724.76
898.573	659.27
898.747	565.11
898.921	592.62
899.096	556.39
899.27	569.18
899.444	529.46
899.618	585.07
899.792	599.79
899.967	607.74
900.141	646.68
900.315	566.47
900.489	575.96
900.663	574.8
900.837	573.06
901.011	534.11
901.185	635.05
901.359	602.7
901.533	597.66
901.707	572.09
901.881	602.89
902.055	534.89
902.229	594.95
902.403	642.61
902.576	596.89
902.75	575.19
902.924	678.07
903.098	644.35
903.272	692.99
903.446	729.02
903.619	714.3
903.793	746.85
903.967	722.05
904.14	748.4
904.314	746.46
904.488	724.18
904.661	746.46
904.835	749.95
905.009	771.45
905.182	799.74
905.356	784.05
905.529	752.08
905.703	723.02
905.876	722.43
906.05	709.65
906.223	656.75
906.397	613.16
906.57	615.87
906.744	590.88
906.917	604.44
907.09	604.25
907.264	567.63
907.437	540.51
907.61	502.34
907.784	542.25
907.957	544.58
908.13	483.74
908.304	557.17
908.477	541.09
908.65	541.48
908.823	486.84
908.996	594.37
909.17	516.29
909.343	498.85
909.516	549.61
909.689	502.34
909.862	490.52
910.035	539.15
910.208	478.31
910.381	475.6
910.554	574.02
910.727	532.37
910.9	510.48
911.073	504.28
911.246	558.52
911.419	568.6
911.592	532.37
911.765	492.46
911.938	492.65
912.11	537.02
912.283	513.58
912.456	567.05
912.629	521.13
912.802	468.82
912.974	469.01
913.147	405.08
913.32	357.61
913.493	431.04
913.665	433.17
913.838	455.06
914.01	432.98
914.183	465.72
914.356	466.3
914.528	493.23
914.701	518.61
914.873	480.64
915.046	426.97
915.218	428.33
915.391	349.86
915.563	386.67
915.736	422.51
915.908	446.54
916.081	415.73
916.253	458.16
916.425	451.19
916.598	446.73
916.77	431.04
916.942	414.57
917.115	349.28
917.287	431.04
917.459	381.63
917.632	364.58
917.804	331.07
917.976	404.3
918.148	426.78
918.32	415.35
918.493	438.21
918.665	481.8
918.837	472.11
919.009	493.04
919.181	476.57
919.353	477.93
919.525	479.09
919.697	475.79
919.869	476.38
920.041	519
920.213	574.02
920.385	515.9
920.557	470.18
920.729	504.86
920.901	469.59
921.073	483.35
921.244	462.04
921.416	514.54
921.588	455.84
921.76	448.67
921.932	517.26
922.103	462.62
922.275	495.17
922.447	486.06
922.619	406.82
922.79	444.02
922.962	464.94
923.134	462.81
923.305	420.19
923.477	386.86
923.648	409.34
923.82	424.45
923.991	370.01
924.163	382.21
924.335	410.11
924.506	386.28
924.677	444.8
924.849	364.78
925.02	449.45
925.192	443.83
925.363	423.29
925.535	419.22
925.706	380.66
925.877	490.13
926.049	389.58
926.22	414.96
926.391	436.08
926.562	413.99
926.734	374.27
926.905	424.65
927.076	382.41
927.247	376.21
927.419	314.4
927.59	322.54
927.761	320.41
927.932	310.92
928.103	316.34
928.274	308.98
928.445	271.2
928.616	314.4
928.787	283.4
928.958	301.03
929.129	279.53
929.3	293.09
929.471	241.17
929.642	217.34
929.813	173.16
929.984	222.76
930.155	167.74
930.326	200.48
930.496	179.94
930.667	160.76
930.838	194.09
931.009	157.08
931.18	126.66
931.35	123.17
931.521	138.48
931.692	103.61
931.863	72.22
932.033	136.35
932.204	108.06
932.374	115.62
932.545	81.91
932.716	130.73
932.886	116.78
933.057	45.48
933.227	65.05
933.398	124.34
933.568	62.73
933.739	-8.96
933.909	69.51
934.08	94.5
934.25	-12.45
934.421	40.06
934.591	60.4
934.761	51.29
934.932	3.25
935.102	28.43
935.272	30.76
935.443	61.18
935.613	42.19
935.783	53.81
935.953	27.08
936.123	181.49
936.294	-5.09
936.464	21.26
936.634	16.03
936.804	10.22
936.974	11.96
937.144	72.8
937.314	41.8
937.484	17.97
937.655	13.51
937.825	69.12
937.995	19.91
938.165	81.13
938.334	37.73
938.504	67.76
938.674	26.49
938.844	66.99
939.014	96.63
939.184	92.95
939.354	147.2
939.524	143.32
939.694	84.62
939.863	87.53
940.033	157.47
940.203	141.97
940.373	125.69
940.542	105.35
940.712	89.66
940.882	126.66
941.051	133.64
941.221	123.56
941.391	144.68
941.56	70.09
941.73	70.67
941.899	181.3
942.069	78.03
942.238	95.28
942.408	67.96
942.577	115.81
942.747	102.64
942.916	44.51
943.086	58.27
943.255	121.62
943.425	81.71
943.594	64.47
943.763	19.33
943.933	28.43
944.102	-19.42
944.271	75.13
944.441	78.03
944.61	31.34
944.779	90.82
944.948	127.44
945.117	19.71
945.287	57.49
945.456	15.84
945.625	-0.44
945.794	60.01
945.963	65.83
946.132	60.01
946.301	34.05
946.47	92.37
946.639	0.34
946.808	56.14
946.977	89.66
947.146	109.81
947.315	33.86
947.484	87.33
947.653	50.71
947.822	61.95
947.991	51.68
948.16	130.73
948.329	110.19
948.498	72.8
948.666	52.65
948.835	80.74
949.004	42.38
949.173	52.46
949.341	71.44
949.51	62.73
949.679	112.91
949.847	85.39
950.016	129.96
950.185	135.96
950.353	53.23
950.522	61.76
950.69	111.36
950.859	65.83
951.028	106.13
951.196	78.42
951.365	65.44
951.533	45.29
951.701	86.17
951.87	87.53
952.038	33.66
952.207	84.81
952.375	116.2
952.543	49.36
952.712	47.61
952.88	40.64
953.048	140.03
953.217	81.33
953.385	76.48
953.553	116.39
953.721	39.09
953.89	71.25
954.058	26.49
954.226	54.39
954.394	107.29
954.562	9.64
954.73	74.74
954.898	47.81
955.067	120.66
955.235	61.37
955.403	97.79
955.571	133.06
955.739	69.51
955.907	42.19
956.075	40.44
956.243	46.06
956.41	83.46
956.578	12.16
956.746	33.08
956.914	44.71
957.082	108.06
957.25	88.88
957.418	44.32
957.585	72.41
957.753	116.39
957.921	60.4
958.089	86.94
958.256	75.13
958.424	99.93
958.592	80.94
958.759	56.14
958.927	86.75
959.095	54.78
959.262	71.44
959.43	77.26
959.597	42.58
959.765	60.21
959.932	42.96
960.1	111.55
960.267	81.13
960.435	65.83
960.602	88.11
960.77	72.8
960.937	24.94
961.104	100.51
961.272	36.96
961.439	70.28
961.606	58.46
961.774	85.2
961.941	79.78
962.108	57.49
962.275	54.98
962.443	116.01
962.61	78.81
962.777	158.44
962.944	99.54
963.111	92.18
963.278	88.69
963.446	79.58
963.613	73.96
963.78	88.88
963.947	115.23
964.114	100.89
964.281	146.04
964.448	121.62
964.615	80.94
964.782	104.38
964.949	98.38
965.116	113.29
965.282	134.41
965.449	80.16
965.616	74.35
965.783	121.62
965.95	104.38
966.117	46.06
966.283	83.07
966.45	118.33
966.617	97.21
966.784	127.44
966.95	93.14
967.117	134.41
967.284	103.61
967.45	92.95
967.617	145.46
967.784	114.26
967.95	158.05
968.117	84.04
968.283	144.87
968.45	218.89
968.616	101.67
968.783	134.41
968.949	116.59
969.116	143.52
969.282	128.21
969.449	117.17
969.615	115.42
969.781	60.21
969.948	106.13
970.114	54.39
970.28	160.18
970.447	109.61
970.613	148.56
970.779	111.36
970.945	126.66
971.112	138.29
971.278	105.74
971.444	144.49
971.61	162.12
971.776	86.75
971.942	119.49
972.108	157.47
972.275	116.2
972.441	134.22
972.607	144.68
972.773	79.97
972.939	141.97
973.105	111.16
973.271	81.71
973.437	90.63
973.602	83.65
973.768	132.86
973.934	73.38
974.1	115.62
974.266	33.08
974.432	110.97
974.598	93.53
974.763	116.2
974.929	106.9
975.095	138.09
975.261	79.39
975.426	68.73
975.592	84.04
975.758	144.68
975.923	50.13
976.089	68.73
976.255	131.51
976.42	111.94
976.586	141.58
976.751	108.84
976.917	167.35
977.082	98.38
977.248	64.86
977.413	48.19
977.579	86.36
977.744	89.85
977.91	60.4
978.075	100.12
978.24	128.41
978.406	73.19
978.571	70.09
978.736	62.53
978.902	103.99
979.067	44.13
979.232	37.93
979.397	118.91
979.563	125.31
979.728	29.79
979.893	95.47
980.058	74.74
980.223	133.06
980.388	85.98
980.554	102.44
980.719	69.7
980.884	121.24
981.049	126.27
981.214	72.22
981.379	94.5
981.544	72.41
981.709	82.1
981.874	77.45
982.039	101.28
982.204	120.85
982.368	108.26
982.533	63.11
982.698	110.58
982.863	119.3
983.028	72.8
983.193	121.62
983.357	97.02
983.522	108.45
983.687	106.9
983.852	90.63
984.016	75.9
984.181	92.56
984.346	131.7
984.51	138.87
984.675	84.43
984.839	100.31
985.004	117.17
985.168	115.23
985.333	120.85
985.498	67.18
985.662	128.99
985.827	110.58
985.991	75.9
986.155	67.38
986.32	125.89
986.484	170.06
986.649	85.39
986.813	51.88
986.977	89.46
987.142	99.73
987.306	50.13
987.47	76.29
987.634	79.19
987.799	103.61
987.963	99.73
988.127	120.07
988.291	161.73
988.455	105.16
988.62	71.83
988.784	142.94
988.948	122.21
989.112	76.09
989.276	92.18
989.44	79
989.604	70.09
989.768	79.19
989.932	142.55
990.096	61.76
990.26	76.68
990.424	57.88
990.588	79.19
990.752	149.72
990.915	128.99
991.079	83.07
991.243	58.27
991.407	118.33
991.571	75.9
991.734	128.6
991.898	88.88
992.062	191.96
992.226	92.56
992.389	69.7
992.553	6.35
992.717	81.91
992.88	69.12
993.044	65.05
993.207	83.26
993.371	93.34
993.535	88.88
993.698	76.29
993.862	123.56
994.025	127.44
994.189	104.38
994.352	86.36
994.515	83.65
994.679	119.88
994.842	83.46
995.006	90.24
995.169	51.1
995.332	66.99
995.496	124.92
995.659	41.41
995.822	69.12
995.985	77.06
996.149	137.71
996.312	72.8
996.475	133.25
996.638	35.6
996.801	134.02
996.964	139.84
997.128	66.6
997.291	82.29
997.454	101.28
997.617	43.74
997.78	86.36
997.943	69.51
998.106	119.88
998.269	61.37
998.432	84.43
998.595	80.74
998.758	36.76
998.92	52.65
999.083	29.79
999.246	70.28
999.409	51.49
999.572	22.81
999.735	39.09
999.897	78.61
1000.06	44.32
1000.223	77.45
1000.386	94.31
1000.548	89.27
1000.711	64.86
1000.874	74.35
1001.036	18.55
1001.199	85.78
1001.361	62.34
1001.524	61.37
1001.687	107.29
1001.849	39.48
1002.012	65.83
1002.174	66.02
1002.337	91.01
1002.499	31.53
1002.661	108.45
1002.824	33.28
1002.986	5.96
1003.149	70.67
1003.311	23.98
1003.473	116.78
1003.636	54.59
1003.798	81.13
1003.96	81.33
1004.123	37.34
1004.285	41.41
1004.447	62.34
1004.609	53.04
1004.771	109.03
1004.933	47.42
1005.096	44.13
1005.258	16.61
1005.42	38.89
1005.582	95.66
1005.744	77.45
1005.906	26.11
1006.068	64.66
1006.23	3.83
1006.392	15.65
1006.554	55.94
1006.716	73.58
1006.878	75.71
1007.04	9.06
1007.202	39.48
1007.363	45.68
1007.525	38.31
1007.687	37.93
1007.849	94.11
1008.011	14.87
1008.172	16.61
1008.334	44.13
1008.496	50.71
1008.658	11
1008.819	26.3
1008.981	17.97
1009.143	5.57
1009.304	40.83
1009.466	59.43
1009.627	76.87
1009.789	134.61
1009.95	65.63
1010.112	15.06
1010.273	39.28
1010.435	29.21
1010.596	45.87
1010.758	39.67
1010.919	25.53
1011.081	25.53
1011.242	36.96
1011.403	45.09
1011.565	29.79
1011.726	47.42
1011.887	21.46
1012.049	66.99
1012.21	67.76
1012.371	91.59
1012.532	4.99
1012.693	60.59
1012.855	30.18
1013.016	55.94
1013.177	55.94
1013.338	46.26
1013.499	89.27
1013.66	43.35
1013.821	53.23
1013.982	70.67
1014.143	52.65
1014.304	31.14
1014.465	62.34
1014.626	51.49
1014.787	35.79
1014.948	116.97
1015.109	-32.79
1015.27	76.87
1015.431	18.75
1015.592	-12.25
1015.752	74.35
1015.913	47.03
1016.074	33.86
1016.235	30.56
1016.395	33.66
1016.556	65.44
1016.717	28.04
1016.877	75.51
1017.038	16.81
1017.199	58.46
1017.359	4.41
1017.52	46.64
1017.681	24.17
1017.841	22.23
1018.002	6.93
1018.162	32.69
1018.323	76.87
1018.483	25.72
1018.644	15.45
1018.804	-3.34
1018.964	-0.44
1019.125	8.67
1019.285	48.78
1019.446	-6.05
1019.606	10.61
1019.766	-6.83
1019.926	40.25
1020.087	52.65
1020.247	-42.67
1020.407	47.81
1020.567	58.46
1020.728	25.91
1020.888	4.99
1021.048	14.87
1021.208	1.11
1021.368	12.16
1021.528	70.09
1021.688	30.37
1021.848	39.28
1022.008	6.54
1022.168	27.46
1022.328	16.81
1022.488	36.38
1022.648	2.28
1022.808	9.64
1022.968	35.6
1023.128	15.65
1023.288	9.25
1023.448	18.55
1023.608	17.39
1023.767	29.4
1023.927	14.29
1024.087	-8.38
1024.247	-9.54
1024.406	14.29
1024.566	-10.9
1024.726	-18.45
1024.885	25.91
1025.045	42.58
1025.205	27.46
1025.364	11
1025.524	-2.18
1025.683	-0.82
1025.843	35.79
1026.003	31.53
1026.162	71.06
1026.321	58.08
1026.481	22.23
1026.64	18.94
1026.8	31.53
1026.959	22.62
1027.119	15.84
1027.278	2.47
1027.437	11.77
1027.597	36.76
1027.756	37.54
1027.915	51.68
1028.074	42.58
1028.234	-6.83
1028.393	20.68
1028.552	14.87
1028.711	-40.35
1028.87	35.21
1029.03	-44.61
1029.189	5.18
1029.348	-48.68
1029.507	-13.8
1029.666	10.41
1029.825	-19.42
1029.984	-4.12
1030.143	23.59
1030.302	-7.02
1030.461	-20
1030.62	9.06
1030.779	49.74
1030.938	-3.34
1031.097	-36.28
1031.255	22.04
1031.414	54.01
1031.573	62.92
1031.732	-42.29
1031.891	12.93
1032.049	62.73
1032.208	37.93
1032.367	9.64
1032.525	-14
1032.684	-1.6
1032.843	12.35
1033.001	-34.92
1033.16	123.56
1033.319	55.75
1033.477	15.65
1033.636	11.77
1033.794	-21.55
1033.953	25.72
1034.111	33.28
1034.27	7.31
1034.428	40.83
1034.587	-20.39
1034.745	30.18
1034.903	-10.32
1035.062	38.12
1035.22	-1.4
1035.378	38.89
1035.537	5.76
1035.695	35.41
1035.853	-9.74
1036.011	62.14
1036.17	7.12
1036.328	-42.09
1036.486	7.51
1036.644	18.36
1036.802	-78.13
1036.96	-3.15
1037.119	12.74
1037.277	15.45
1037.435	-29.69
1037.593	-12.45
1037.751	-3.15
1037.909	34.24
1038.067	34.24
