Data from oakcork_FLMT105791__25__17-27-00-066.txt Node

Date: Mon Mar 20 17:27:00 GMT 2023
User: antho
Spectrometer: FLMT10579
Trigger mode: 0
Integration Time (sec): 1.000000E-1
Scans to average: 10
Electric dark correction enabled: true
Nonlinearity correction enabled: false
Boxcar width: 0
XAxis mode: Wavelengths
Number of Pixels in Spectrum: 3648
>>>>>Begin Spectral Data<<<<<
345.248	-133.8
345.464	-133.8
345.681	-133.8
345.898	-158.21
346.114	-138.64
346.331	-24.53
346.548	45.42
346.764	-19.29
346.981	-29.76
347.197	5.7
347.414	5.89
347.631	-35.96
347.847	55.69
348.064	11.32
348.28	26.43
348.497	-48.94
348.713	8.02
348.93	25.85
349.146	37.67
349.363	11.71
349.579	28.56
349.796	0.86
350.012	2.41
350.229	32.63
350.445	-13.29
350.661	-15.23
350.878	21.01
351.094	39.02
351.311	16.74
351.527	34.37
351.743	8.61
351.96	15.19
352.176	53.36
352.392	32.44
352.609	33.99
352.825	-12.9
353.041	33.6
353.257	8.02
353.474	1.63
353.69	23.72
353.906	19.46
354.122	-12.71
354.339	61.5
354.555	19.65
354.771	4.15
354.987	86.1
355.203	48.52
355.42	3.96
355.636	-4.76
355.852	-1.28
356.068	15.58
356.284	-12.71
356.5	50.46
356.716	28.17
356.932	12.67
357.148	59.75
357.364	26.82
357.58	71.96
357.796	71.57
358.012	44.06
358.228	17.52
358.444	-41.38
358.66	56.65
358.876	1.82
359.092	-5.73
359.308	43.09
359.524	57.43
359.74	20.62
359.956	-0.31
360.172	28.37
360.388	65.57
360.604	8.61
360.819	86.3
361.035	11.71
361.251	38.06
361.467	-9.22
361.683	45.03
361.898	32.44
362.114	36.12
362.33	23.91
362.546	50.07
362.762	-18.52
362.977	38.06
363.193	2.41
363.409	67.5
363.624	-33.24
363.84	18.87
364.056	1.05
364.271	36.51
364.487	37.86
364.703	14.61
364.918	-3.6
365.134	13.06
365.35	6.09
365.565	115.55
365.781	54.14
365.996	62.66
366.212	94.24
366.427	35.15
366.643	1.24
366.858	3.37
367.074	3.18
367.289	67.12
367.505	115.75
367.72	-1.86
367.936	35.15
368.151	49.1
368.367	29.72
368.582	27.59
368.798	-3.41
369.013	103.35
369.228	23.14
369.444	27.01
369.659	60.92
369.874	54.14
370.09	81.26
370.305	-16.58
370.52	-7.86
370.736	64.6
370.951	36.31
371.166	76.61
371.381	84.17
371.597	53.55
371.812	-18.91
372.027	-18.33
372.242	16.94
372.458	100.25
372.673	31.08
372.888	18.1
373.103	53.55
373.318	102.77
373.533	55.88
373.749	56.46
373.964	-14.26
374.179	77.97
374.394	-32.86
374.609	69.25
374.824	-8.64
375.039	70.41
375.254	22.36
375.469	91.72
375.684	45.42
375.899	68.09
376.114	21.39
376.329	30.69
376.544	65.57
376.759	65.57
376.974	34.57
377.189	39.61
377.404	31.47
377.619	90.17
377.834	-40.99
378.049	-11.35
378.264	1.63
378.478	33.41
378.693	22.36
378.908	68.47
379.123	19.46
379.338	65.57
379.553	5.89
379.767	48.91
379.982	65.37
380.197	80.1
380.412	9.77
380.626	62.27
380.841	134.15
381.056	87.85
381.271	95.4
381.485	-17.94
381.7	-16
381.915	69.25
382.129	-0.11
382.344	50.84
382.559	25.85
382.773	57.43
382.988	-40.99
383.202	48.32
383.417	14.61
383.632	134.93
383.846	29.72
384.061	36.51
384.275	26.04
384.49	50.65
384.704	55.1
384.919	60.53
385.133	58.79
385.348	84.36
385.562	8.22
385.777	77.58
385.991	38.44
386.206	45.03
386.42	26.24
386.634	70.99
386.849	76.61
387.063	60.53
387.277	14.61
387.492	2.79
387.706	27.4
387.92	10.74
388.135	67.89
388.349	58.01
388.563	54.14
388.778	56.65
388.992	71.19
389.206	64.99
389.42	128.15
389.635	51.81
389.849	78.16
390.063	81.45
390.277	72.74
390.491	114.78
390.706	52
390.92	71.96
391.134	68.67
391.348	83.97
391.562	22.94
391.776	38.44
391.99	29.92
392.205	89.59
392.419	40.77
392.633	60.34
392.847	91.34
393.061	24.69
393.275	109.94
393.489	34.37
393.703	52.59
393.917	75.45
394.131	12.87
394.345	90.56
394.559	104.51
394.773	45.81
394.986	47.55
395.2	60.53
395.414	93.27
395.628	36.31
395.842	59.56
396.056	50.07
396.27	5.89
396.484	80.1
396.697	51.23
396.911	116.52
397.125	41.35
397.339	88.82
397.553	54.72
397.766	147.33
397.98	91.34
398.194	101.8
398.408	66.15
398.621	124.66
398.835	91.92
399.049	91.72
399.262	125.05
399.476	108.39
399.69	129.31
399.903	160.12
400.117	79.13
400.331	123.11
400.544	114.78
400.758	219.02
400.971	121.75
401.185	130.09
401.398	69.25
401.612	159.73
401.826	116.52
402.039	133.57
402.253	103.93
402.466	136.09
402.68	113.62
402.893	105.09
403.106	126.4
403.32	113.04
403.533	111.29
403.747	95.21
403.96	130.86
404.174	153.92
404.387	59.95
404.6	112.45
404.814	143.45
405.027	92.5
405.24	132.02
405.454	93.27
405.667	151.59
405.88	50.07
406.094	110.9
406.307	160.31
406.52	133.19
406.733	103.74
406.947	76.61
407.16	160.12
407.373	147.72
407.586	97.92
407.799	71.96
408.012	118.27
408.226	106.84
408.439	189.18
408.652	64.21
408.865	129.7
409.078	154.11
409.291	125.24
409.504	109.16
409.717	149.07
409.93	138.42
410.143	127.95
410.357	86.1
410.57	57.82
410.783	129.12
410.996	139.97
411.209	128.34
411.421	160.5
411.634	106.45
411.847	104.7
412.06	139.19
412.273	117.69
412.486	159.73
412.699	231.22
412.912	137.06
413.125	162.44
413.338	143.84
413.55	182.01
413.763	135.7
413.976	147.33
414.189	125.05
414.402	118.07
414.615	194.02
414.827	105.09
415.04	131.44
415.253	187.05
415.466	164.96
415.678	209.91
415.891	163.8
416.104	120.79
416.316	143.45
416.529	149.07
416.742	171.16
416.954	192.47
417.167	148.3
417.38	131.05
417.592	186.27
417.805	108.77
418.017	100.83
418.23	176.2
418.442	121.95
418.655	121.17
418.868	139
419.08	165.54
419.293	175.23
419.505	142.68
419.718	163.99
419.93	192.86
420.142	164.77
420.355	174.84
420.567	200.22
420.78	176.58
420.992	148.49
421.205	201.38
421.417	133.19
421.629	143.07
421.842	113.04
422.054	108.19
422.266	178.13
422.479	211.07
422.691	147.91
422.903	178.91
423.115	160.31
423.328	155.47
423.54	173.48
423.752	156.63
423.964	146.17
424.177	179.88
424.389	173.87
424.601	268.61
424.813	180.85
425.025	183.17
425.238	188.21
425.45	148.1
425.662	156.43
425.874	445.51
426.086	154.5
426.298	193.63
426.51	168.45
426.722	170.19
426.934	164.38
427.146	209.91
427.358	141.13
427.57	191.31
427.782	157.6
427.994	163.6
428.206	158.37
428.418	134.54
428.63	218.05
428.842	227.15
429.054	172.9
429.266	197.9
429.478	165.93
429.69	177.36
429.902	137.64
430.114	198.87
430.325	168.83
430.537	127.37
430.749	160.12
430.961	89.79
431.173	135.51
431.384	184.53
431.596	96.18
431.808	162.63
432.02	174.26
432.231	232.19
432.443	211.07
432.655	189.37
432.867	175.03
433.078	196.15
433.29	245.75
433.502	239.55
433.713	216.5
433.925	208.36
434.136	232
434.348	141.13
434.56	151.59
434.771	285.47
434.983	156.82
435.194	184.92
435.406	201.38
435.617	253.31
435.829	269.2
436.04	258.73
436.252	232.19
436.463	260.67
436.675	286.44
436.886	237.03
437.098	243.62
437.309	280.05
437.521	221.34
437.732	233.74
437.943	228.7
438.155	258.15
438.366	170.97
438.578	279.85
438.789	217.47
439	233.35
439.211	216.69
439.423	254.86
439.634	250.01
439.845	266.48
440.057	241.68
440.268	269.97
440.479	225.6
440.69	249.43
440.902	225.22
441.113	216.11
441.324	218.63
441.535	251.56
441.746	315.31
441.957	240.71
442.168	238.39
442.38	291.86
442.591	314.73
442.802	233.93
443.013	247.5
443.224	263
443.435	256.02
443.646	251.37
443.857	271.91
444.068	263.58
444.279	226.57
444.49	322.48
444.701	269.97
444.912	365.49
445.123	306.98
445.334	266.1
445.545	312.4
445.756	274.04
445.967	255.05
446.178	271.52
446.388	299.81
446.599	290.51
446.81	303.3
447.021	276.36
447.232	310.66
447.443	320.54
447.653	265.51
447.864	315.11
448.075	292.06
448.286	310.66
448.496	327.71
448.707	322.09
448.918	284.31
449.129	371.69
449.339	286.83
449.55	308.14
449.761	285.08
449.971	379.24
450.182	307.95
450.393	345.92
450.603	292.64
450.814	359.29
451.024	319.38
451.235	379.05
451.446	362.97
451.656	357.35
451.867	315.31
452.077	317.83
452.288	379.63
452.498	364.71
452.709	345.34
452.919	331.39
453.13	276.75
453.34	381.76
453.55	282.76
453.761	333.33
453.971	322.67
454.182	368.98
454.392	363.55
454.602	396.1
454.813	365.88
455.023	368.39
455.233	284.5
455.444	344.56
455.654	270.94
455.864	324.22
456.075	314.34
456.285	308.72
456.495	341.08
456.705	365.1
456.916	382.93
457.126	431.75
457.336	337.39
457.546	284.5
457.756	318.79
457.967	385.44
458.177	347.28
458.387	354.83
458.597	319.76
458.807	333.71
459.017	352.12
459.227	333.33
459.437	329.64
459.647	347.28
459.857	380.79
460.068	322.28
460.278	387.58
460.488	345.34
460.698	403.27
460.908	332.55
461.117	315.89
461.327	324.22
461.537	368.98
461.747	350.96
461.957	376.34
462.167	475.34
462.377	390.68
462.587	362.97
462.797	381.18
463.007	392.03
463.216	391.06
463.426	431.17
463.636	426.13
463.846	333.13
464.056	360.84
464.265	383.7
464.475	343.79
464.685	372.66
464.895	401.33
465.104	393.39
465.314	420.71
465.524	356.77
465.733	337.01
465.943	461.78
466.153	419.54
466.362	413.15
466.572	389.9
466.782	379.05
466.991	380.99
467.201	464.69
467.41	339.72
467.62	404.62
467.829	399.98
468.039	418.38
468.249	405.21
468.458	403.85
468.668	436.79
468.877	409.27
469.086	476.7
469.296	470.5
469.505	389.51
469.715	457.91
469.924	421.09
470.134	445.89
470.343	470.11
470.552	435.04
470.762	441.63
470.971	410.05
471.18	447.64
471.39	419.35
471.599	432.33
471.808	468.37
472.018	415.86
472.227	474.96
472.436	483.09
472.645	432.72
472.855	435.24
473.064	514.09
473.273	487.55
473.482	492.59
473.691	523.39
473.901	469.14
474.11	467.98
474.319	560.4
474.528	503.05
474.737	510.02
474.946	500.34
475.155	501.69
475.364	541.99
475.573	495.1
475.783	508.09
475.992	523.2
476.201	513.12
476.41	485.61
476.619	468.37
476.828	497.43
477.037	508.28
477.245	510.8
477.454	534.05
477.663	506.34
477.872	512.74
478.081	580.35
478.29	492.39
478.499	608.45
478.708	514.67
478.917	626.27
479.125	573.19
479.334	553.42
479.543	540.83
479.752	593.72
479.961	548.39
480.169	598.76
480.378	532.11
480.587	689.05
480.796	622.4
481.004	583.07
481.213	604.96
481.422	571.64
481.63	607.67
481.839	620.46
482.048	654.17
482.256	621.04
482.465	636.15
482.674	647.97
482.882	654.75
483.091	698.15
483.299	637.12
483.508	657.27
483.716	634.99
483.925	653.59
484.134	602.63
484.342	625.3
484.551	671.03
484.759	683.23
484.967	673.74
485.176	674.51
485.384	692.34
485.593	685.95
485.801	658.24
486.01	635.77
486.218	603.41
486.426	561.75
486.635	609.8
486.843	597.6
487.051	610
487.26	605.93
487.468	632.67
487.676	676.84
487.885	660.95
488.093	672
488.301	674.13
488.509	668.51
488.717	727.6
488.926	693.89
489.134	654.75
489.342	671.03
489.55	655.53
489.758	705.51
489.967	684.01
490.175	808.78
490.383	694.28
490.591	798.51
490.799	715.98
491.007	765.19
491.215	738.45
491.423	717.91
491.631	696.02
491.839	742.33
492.047	738.65
492.255	689.43
492.463	671.41
492.671	728.96
492.879	767.9
493.087	737.87
493.295	785.92
493.503	762.86
493.711	789.41
493.919	807.81
494.127	786.5
494.334	829.13
494.542	763.06
494.75	810.33
494.958	753.95
495.166	807.62
495.374	795.22
495.581	803.16
495.789	822.54
495.997	854.31
496.205	787.86
496.412	786.11
496.62	816.14
496.828	849.66
497.035	774.1
497.243	843.07
497.451	837.07
497.658	817.69
497.866	826.03
498.074	886.47
498.281	801.23
498.489	907.59
498.696	833.39
498.904	780.49
499.112	801.81
499.319	892.48
499.527	806.65
499.734	851.99
499.942	828.74
500.149	809.75
500.357	844.82
500.564	793.67
500.771	852.57
500.979	804.71
501.186	793.67
501.394	801.42
501.601	820.99
501.808	838.62
502.016	809.94
502.223	820.79
502.43	825.25
502.638	790.96
502.845	791.34
503.052	902.56
503.26	826.41
503.467	893.64
503.674	844.24
503.881	862.26
504.089	906.43
504.296	885.89
504.503	789.79
504.71	846.56
504.917	813.04
505.125	851.02
505.332	866.91
505.539	866.91
505.746	928.32
505.953	881.82
506.16	914.76
506.367	922.51
506.574	958.94
506.781	915.34
506.988	859.16
507.195	889.19
507.402	889.57
507.609	928.13
507.816	875.04
508.023	878.34
508.23	856.44
508.437	831.26
508.644	914.76
508.851	947.89
509.058	926.39
509.265	909.92
509.472	965.14
509.679	1010.86
509.885	940.53
510.092	908.95
510.299	908.76
510.506	916.51
510.713	935.88
510.92	923.67
511.126	968.62
511.333	989.74
511.54	965.72
511.746	1004.27
511.953	991.68
512.16	1033.72
512.367	932
512.573	946.92
512.78	928.32
512.987	967.46
513.193	928.32
513.4	893.45
513.606	964.94
513.813	999.43
514.02	949.05
514.226	1013.18
514.433	1016.67
514.639	918.64
514.846	980.44
515.052	924.45
515.259	960.68
515.465	950.22
515.672	971.92
515.878	1038.76
516.085	998.27
516.291	1041.08
516.497	969.4
516.704	930.84
516.91	909.53
517.117	881.24
517.323	837.26
517.529	885.89
517.736	903.14
517.942	912.05
518.148	900.62
518.354	954.48
518.561	911.86
518.767	949.44
518.973	976.57
519.179	978.12
519.386	957.19
519.592	943.05
519.798	954.87
520.004	1050.77
520.21	1019.19
520.417	1039.73
520.623	1091.46
520.829	1070.73
521.035	1047.67
521.241	1065.88
521.447	1053.29
521.653	1188.53
521.859	1051.35
522.065	1089.52
522.271	1166.05
522.477	1118.97
522.683	1167.02
522.889	1122.26
523.095	1119.16
523.301	1117.81
523.507	1079.06
523.713	1148.03
523.919	1088.75
524.125	1149.39
524.331	1110.45
524.537	1205.19
524.742	1186.2
524.948	1170.9
525.154	1192.98
525.36	1239.87
525.566	1209.84
525.772	1216.23
525.977	1141.45
526.183	1200.15
526.389	1212.55
526.595	1157.53
526.8	1175.55
527.006	1099.4
527.212	1087.97
527.417	1057.36
527.623	1062.98
527.829	1132.92
528.034	1173.8
528.24	1170.7
528.446	1123.23
528.651	1192.79
528.857	1244.91
529.062	1274.16
529.268	1246.84
529.473	1243.74
529.679	1223.79
529.884	1309.81
530.09	1270.68
530.295	1322.02
530.501	1295.67
530.706	1276.29
530.912	1245.1
531.117	1265.64
531.323	1251.69
531.528	1293.73
531.733	1291.99
531.939	1273.19
532.144	1293.73
532.35	1299.93
532.555	1300.12
532.76	1311.56
532.966	1292.57
533.171	1290.63
533.376	1271.06
533.581	1236.96
533.787	1273.78
533.992	1260.79
534.197	1328.61
534.402	1283.07
534.607	1310.97
534.813	1407.85
535.018	1286.17
535.223	1298.57
535.428	1324.54
535.633	1361.35
535.838	1329.19
536.043	1345.46
536.249	1470.04
536.454	1357.09
536.659	1374.33
536.864	1321.05
537.069	1358.64
537.274	1350.31
537.479	1357.28
537.684	1343.91
537.889	1329.96
538.094	1440.01
538.299	1347.01
538.504	1401.65
538.708	1372.2
538.913	1401.07
539.118	1381.5
539.323	1399.32
539.528	1341.39
539.733	1360.77
539.938	1386.73
540.142	1404.94
540.347	1363.48
540.552	1317.76
540.757	1370.65
540.962	1354.96
541.166	1284.62
541.371	1316.01
541.576	1327.06
541.781	1234.06
541.985	1373.75
542.19	1376.65
542.395	1415.21
542.599	1436.14
542.804	1399.52
543.008	1454.15
543.213	1344.11
543.418	1330.74
543.622	1409.2
543.827	1351.86
544.031	1442.14
544.236	1452.02
544.44	1393.12
544.645	1510.73
544.849	1406.88
545.054	1432.45
545.258	1499.68
545.463	1488.64
545.667	1397.77
545.872	1471.59
546.076	1423.15
546.281	1446.21
546.485	1387.89
546.689	1449.5
546.894	1483.41
547.098	1444.47
547.302	1395.25
547.507	1459.77
547.711	1434.59
547.915	1460.16
548.119	1408.82
548.324	1419.67
548.528	1471.78
548.732	1441.56
548.936	1437.69
549.141	1461.13
549.345	1415.21
549.549	1437.69
549.753	1470.62
549.957	1509.57
550.161	1482.25
550.366	1492.71
550.57	1434.39
550.774	1462.29
550.978	1461.13
551.182	1459.97
551.386	1402.62
551.59	1446.4
551.794	1436.72
551.998	1471.98
552.202	1458.61
552.406	1418.7
552.61	1480.7
552.814	1466.75
553.018	1504.53
553.222	1421.41
553.426	1453.96
553.63	1524.48
553.833	1435.55
554.037	1409.98
554.241	1464.03
554.445	1460.93
554.649	1456.09
554.853	1396.03
555.056	1513.44
555.26	1493.87
555.464	1457.45
555.668	1443.69
555.871	1518.48
556.075	1513.83
556.279	1441.75
556.483	1408.82
556.686	1434.59
556.89	1436.14
557.094	1455.9
557.297	1363.87
557.501	1469.07
557.704	1371.23
557.908	1480.5
558.112	1389.64
558.315	1445.82
558.519	1418.31
558.722	1418.89
558.926	1435.75
559.129	1315.04
559.333	1347.01
559.536	1368.71
559.74	1347.4
559.943	1315.24
560.147	1331.32
560.35	1370.26
560.553	1364.06
560.757	1306.91
560.96	1411.53
561.164	1347.01
561.367	1422.96
561.57	1354.76
561.774	1381.11
561.977	1335.58
562.18	1319.5
562.384	1461.13
562.587	1343.72
562.79	1362.12
562.993	1368.32
563.197	1400.49
563.4	1399.52
563.603	1403.2
563.806	1443.5
564.009	1306.52
564.212	1365.61
564.416	1300.71
564.619	1338.1
564.822	1314.66
565.025	1389.83
565.228	1313.49
565.431	1341.97
565.634	1281.72
565.837	1312.14
566.04	1277.65
566.243	1306.13
566.446	1204.03
566.649	1280.17
566.852	1232.31
567.055	1277.46
567.258	1297.61
567.461	1350.5
567.664	1340.42
567.867	1231.93
568.07	1283.27
568.273	1293.73
568.475	1300.32
568.678	1270.87
568.881	1235.41
569.084	1295.09
569.287	1167.99
569.489	1224.37
569.692	1266.8
569.895	1270.68
570.098	1223.59
570.3	1193.56
570.503	1122.85
570.706	1180.97
570.909	1200.73
571.111	1142.03
571.314	1140.86
571.516	1166.83
571.719	1191.82
571.922	1142.61
572.124	1136.21
572.327	1159.85
572.529	1119.16
572.732	1147.84
572.935	1159.46
573.137	1226.69
573.34	1147.45
573.542	1228.83
573.745	1173.41
573.947	1175.35
574.15	1159.66
574.352	1138.73
574.554	1181.75
574.757	1136.41
574.959	1129.24
575.162	1111.22
575.364	1109.09
575.566	1206.35
575.769	1112.58
575.971	1131.95
576.173	1051.35
576.376	1090.49
576.578	1151.13
576.78	1167.6
576.982	1066.47
577.185	1077.9
577.387	1089.91
577.589	1061.82
577.791	1092.23
577.993	1108.51
578.196	1080.03
578.398	1118.2
578.6	1141.64
578.802	1047.09
579.004	1043.99
579.206	1070.53
579.408	1100.95
579.61	1059.68
579.812	1114.51
580.014	1063.56
580.216	1072.67
580.418	1075.96
580.62	1042.63
580.822	1020.93
581.024	1070.73
581.226	1093.78
581.428	1040.31
581.63	1141.06
581.832	1081.19
582.034	1095.33
582.236	1097.66
582.438	1136.8
582.64	1141.83
582.841	1148.42
583.043	1181.16
583.245	1090.3
583.447	1109.86
583.649	1111.41
583.85	1104.63
584.052	1124.59
584.254	1097.47
584.456	1149.39
584.657	1046.7
584.859	1104.44
585.061	1049.22
585.262	1075.77
585.464	1037.4
585.666	1069.37
585.867	1042.25
586.069	1132.34
586.27	1084.68
586.472	1077.9
586.674	1037.98
586.875	1069.18
587.077	1021.71
587.278	1075.96
587.48	1037.02
587.681	1158.5
587.883	1070.34
588.084	994.59
588.285	1035.27
588.487	1025.2
588.688	1047.67
588.89	938.98
589.091	962.04
589.292	936.07
589.494	956.42
589.695	917.47
589.896	857.41
590.098	875.62
590.299	945.18
590.5	894.22
590.702	920.38
590.903	957
591.104	1009.12
591.305	966.69
591.507	1017.45
591.708	995.36
591.909	947.31
592.11	1043.41
592.311	1019.58
592.512	935.1
592.714	930.26
592.915	924.26
593.116	930.26
593.317	959.52
593.518	966.69
593.719	950.02
593.92	980.64
594.121	1010.86
594.322	939.95
594.523	957.58
594.724	907.98
594.925	959.71
595.126	974.24
595.327	981.22
595.528	971.92
595.729	1012.99
595.929	947.7
596.13	986.25
596.331	963.59
596.532	988.39
596.733	1026.55
596.934	990.52
597.135	978.31
597.335	1011.25
597.536	957.58
597.737	975.02
597.938	936.27
598.138	991.49
598.339	940.53
598.54	977.92
598.74	929.1
598.941	950.6
599.142	1027.72
599.342	1006.6
599.543	938.4
599.744	963.97
599.944	965.33
600.145	958.55
600.345	988.58
600.546	998.85
600.746	1023.45
600.947	1040.7
601.147	984.51
601.348	1002.14
601.548	950.8
601.749	960.29
601.949	900.42
602.15	918.06
602.35	939.75
602.551	1002.14
602.751	934.14
602.951	950.22
603.152	893.06
603.352	998.85
603.552	938.98
603.753	949.25
603.953	960.29
604.153	955.64
604.354	967.27
604.554	936.85
604.754	944.4
604.954	911.47
605.155	960.68
605.355	904.88
605.555	978.7
605.755	1012.41
605.955	936.46
606.155	977.34
606.356	944.79
606.556	1001.75
606.756	944.99
606.956	889.77
607.156	981.6
607.356	891.9
607.556	966.1
607.756	944.21
607.956	992.26
608.156	961.26
608.356	899.84
608.556	973.27
608.756	909.92
608.956	897.52
609.156	958.16
609.356	898.87
609.556	919.22
609.755	928.32
609.955	894.03
610.155	934.33
610.355	948.67
610.555	883.18
610.755	902.94
610.954	857.99
611.154	936.65
611.354	932.59
611.554	871.75
611.753	885.7
611.953	834.94
612.153	921.16
612.352	903.91
612.552	847.14
612.752	856.06
612.951	892.67
613.151	871.94
613.351	849.66
613.55	888.8
613.75	924.26
613.949	870.59
614.149	908.56
614.348	856.83
614.548	846.56
614.747	794.83
614.947	829.9
615.146	802.39
615.346	895.39
615.545	883.37
615.745	874.27
615.944	870.01
616.144	871.17
616.343	904.3
616.542	840.94
616.742	872.14
616.941	845.98
617.14	818.28
617.34	825.25
617.539	851.6
617.738	830.09
617.938	912.44
618.137	848.5
618.336	795.03
618.535	867.1
618.734	829.13
618.934	855.86
619.133	834.36
619.332	858.38
619.531	832.61
619.73	815.76
619.929	872.52
620.128	853.34
620.328	898.29
620.527	830.87
620.726	835.52
620.925	868.65
621.124	833.58
621.323	832.81
621.522	815.76
621.721	810.91
621.92	778.17
622.119	846.76
622.318	825.64
622.517	808.59
622.715	793.28
622.914	781.85
623.113	800.45
623.312	771.78
623.511	818.47
623.71	811.88
623.909	769.06
624.107	853.15
624.306	756.86
624.505	752.98
624.704	775.26
624.902	749.11
625.101	836.49
625.3	800.26
625.499	751.24
625.697	762.48
625.896	763.83
626.095	816.53
626.293	733.8
626.492	743.88
626.69	805.88
626.889	734.77
627.088	742.71
627.286	740.78
627.485	748.91
627.683	752.59
627.882	761.51
628.08	671.61
628.279	767.51
628.477	829.32
628.676	680.71
628.874	747.95
629.073	727.6
629.271	694.28
629.469	756.47
629.668	713.07
629.866	742.91
630.065	695.44
630.263	756.28
630.461	692.53
630.66	736.13
630.858	755.31
631.056	741.75
631.254	794.06
631.453	703.58
631.651	778.36
631.849	732.45
632.047	745.62
632.245	728.18
632.444	732.06
632.642	719.66
632.84	806.65
633.038	728.57
633.236	716.95
633.434	684.4
633.632	700.09
633.83	700.48
634.028	758.79
634.227	734.38
634.425	808.01
634.623	751.04
634.821	745.43
635.019	745.81
635.216	717.72
635.414	755.5
635.612	774.29
635.81	713.85
636.008	787.08
636.206	698.15
636.404	770.42
636.602	697.18
636.8	707.06
636.997	734.19
637.195	773.52
637.393	756.66
637.591	766.74
637.789	773.91
637.986	704.55
638.184	719.27
638.382	775.26
638.58	757.24
638.777	773.52
638.975	721.01
639.173	764.99
639.37	714.62
639.568	731.86
639.765	776.81
639.963	745.23
640.161	780.69
640.358	775.84
640.556	728.96
640.753	669.09
640.951	724.5
641.148	763.64
641.346	715.01
641.543	736.51
641.741	751.24
641.938	696.99
642.136	733.41
642.333	697.57
642.531	743.3
642.728	773.91
642.925	699.31
643.123	726.44
643.32	717.91
643.517	687.69
643.715	686.53
643.912	696.21
644.109	704.55
644.306	702.8
644.504	685.75
644.701	691.76
644.898	737.29
645.095	675.68
645.293	727.8
645.49	731.28
645.687	709.97
645.884	753.95
646.081	675.29
646.278	701.45
646.475	650.88
646.672	630.15
646.87	698.73
647.067	668.12
647.264	678.2
647.461	637.12
647.658	637.12
647.855	702.41
648.052	652.43
648.249	562.53
648.446	632.08
648.642	629.18
648.839	635.77
649.036	632.67
649.233	616.78
649.43	584.23
649.627	612.9
649.824	620.85
650.021	623.56
650.217	604.18
650.414	608.06
650.611	648.94
650.808	623.37
651.004	639.06
651.201	679.16
651.398	692.53
651.595	622.98
651.791	602.44
651.988	653.2
652.185	594.88
652.381	658.82
652.578	584.42
652.775	626.66
652.971	622.2
653.168	631.89
653.364	653.4
653.561	587.72
653.757	601.28
653.954	626.85
654.15	599.15
654.347	692.15
654.543	630.15
654.74	595.08
654.936	564.66
655.133	620.46
655.329	624.53
655.525	569.12
655.722	645.65
655.918	556.14
656.115	624.14
656.311	535.99
656.507	517
656.704	510.8
656.9	560.4
657.096	495.49
657.292	514.29
657.489	556.91
657.685	566.4
657.881	543.93
658.077	572.99
658.273	584.03
658.47	627.43
658.666	576.67
658.862	606.12
659.058	585.2
659.254	640.8
659.45	572.99
659.646	614.45
659.842	574.74
660.038	621.82
660.234	550.32
660.43	588.1
660.626	646.62
660.822	655.92
661.018	631.7
661.214	594.69
661.41	548.39
661.606	604.38
661.802	592.75
661.998	574.15
662.194	569.31
662.39	616.58
662.586	619.3
662.781	617.36
662.977	657.27
663.173	629.57
663.369	604.77
663.564	618.52
663.76	629.37
663.956	589.07
664.152	618.52
664.347	538.89
664.543	601.86
664.739	596.05
664.934	562.14
665.13	513.12
665.326	606.51
665.521	599.34
665.717	545.67
665.912	557.69
666.108	507.5
666.304	546.06
666.499	543.35
666.695	528.62
666.89	573.96
667.086	587.72
667.281	567.18
667.477	600.31
667.672	571.64
667.867	591.59
668.063	571.64
668.258	525.52
668.454	569.89
668.649	659.6
668.844	578.03
669.04	554.78
669.235	547.8
669.43	569.89
669.626	514.87
669.821	559.43
670.016	488.9
670.211	548.97
670.407	536.95
670.602	538.5
670.797	564.47
670.992	601.86
671.187	543.54
671.382	593.72
671.578	540.64
671.773	556.33
671.968	498.4
672.163	547.42
672.358	552.07
672.553	517.19
672.748	503.63
672.943	636.54
673.138	521.65
673.333	564.08
673.528	509.25
673.723	542.77
673.918	547.8
674.113	500.92
674.308	589.27
674.503	568.73
674.698	571.44
674.892	569.89
675.087	567.95
675.282	558.07
675.477	526.49
675.672	563.5
675.867	530.37
676.061	505.18
676.256	486.58
676.451	525.91
676.646	531.14
676.84	503.44
677.035	466.82
677.23	473.41
677.424	579.77
677.619	572.22
677.814	560.79
678.008	561.17
678.203	469.14
678.397	527.46
678.592	538.12
678.787	560.2
678.981	499.75
679.176	554
679.37	521.84
679.565	490.26
679.759	477.28
679.954	551.49
680.148	585.2
680.342	573.38
680.537	558.07
680.731	500.72
680.926	504.02
681.12	560.4
681.314	472.82
681.509	513.32
681.703	526.1
681.897	530.75
682.092	511.57
682.286	502.08
682.48	556.33
682.674	584.62
682.869	514.67
683.063	538.5
683.257	560.79
683.451	516.8
683.645	528.43
683.839	519.71
684.034	516.8
684.228	542.96
684.422	479.99
684.616	505.18
684.81	521.84
685.004	509.05
685.198	502.47
685.392	526.49
685.586	519.13
685.78	515.64
685.974	534.82
686.168	554.2
686.362	573.19
686.556	449.38
686.75	440.08
686.944	463.91
687.138	465.46
687.331	403.27
687.525	408.11
687.719	373.63
687.913	401.72
688.107	381.57
688.301	384.28
688.494	424.77
688.688	403.85
688.882	393.19
689.076	370.91
689.269	400.17
689.463	496.65
689.657	421.48
689.85	417.61
690.044	424.58
690.238	410.82
690.431	421.29
690.625	414.31
690.818	436.01
691.012	457.32
691.205	454.03
691.399	396.1
691.593	465.66
691.786	509.44
691.98	510.22
692.173	545.09
692.366	509.25
692.56	495.3
692.753	568.54
692.947	486.77
693.14	537.34
693.333	535.4
693.527	453.06
693.72	512.93
693.914	476.31
694.107	510.22
694.3	500.53
694.493	486.39
694.687	565.44
694.88	480.96
695.073	540.44
695.266	553.23
695.46	510.41
695.653	607.87
695.846	592.56
696.039	473.41
696.232	547.22
696.425	572.22
696.618	569.31
696.812	588.3
697.005	639.45
697.198	678.39
697.391	636.73
697.584	642.16
697.777	678.78
697.97	659.4
698.163	685.56
698.356	638.67
698.549	735.35
698.742	699.7
698.935	613.48
699.127	667.73
699.32	646.81
699.513	627.82
699.706	681.1
699.899	670.25
700.092	666.18
700.285	710.75
700.477	638.67
700.67	677.03
700.863	717.33
701.056	787.28
701.248	733.22
701.441	723.53
701.634	707.06
701.826	830.68
702.019	713.26
702.212	780.11
702.404	698.15
702.597	715.01
702.79	719.46
702.982	762.67
703.175	807.43
703.367	808.39
703.56	811.88
703.752	872.91
703.945	826.22
704.137	866.91
704.33	877.95
704.522	887.83
704.715	880.86
704.907	907.79
705.1	930.26
705.292	943.63
705.484	885.7
705.677	939.17
705.869	939.56
706.061	944.02
706.254	990.13
706.446	949.44
706.638	951.19
706.831	1021.52
707.023	969.2
707.215	1065.3
707.407	1022.68
707.599	1040.12
707.792	1066.27
707.984	1055.81
708.176	1072.86
708.368	1039.53
708.56	1089.91
708.752	1087.2
708.944	1069.37
709.136	1113.93
709.329	1079.64
709.521	1204.22
709.713	1169.73
709.905	1179.42
710.097	1220.3
710.289	1136.21
710.481	1192.01
710.672	1188.53
710.864	1215.26
711.056	1236.77
711.248	1228.63
711.44	1244.71
711.632	1236.38
711.824	1239.48
712.016	1323.37
712.207	1291.99
712.399	1282.69
712.591	1342.17
712.783	1300.32
712.975	1355.34
713.166	1297.22
713.358	1304.58
713.55	1378.01
713.741	1365.03
713.933	1376.65
714.125	1379.95
714.316	1338.1
714.508	1442.34
714.7	1462.48
714.891	1430.9
715.083	1493.29
715.274	1431.87
715.466	1452.41
715.657	1509.95
715.849	1379.37
716.04	1470.82
716.232	1354.18
716.423	1452.8
716.615	1381.89
716.806	1378.01
716.998	1367.16
717.189	1295.86
717.381	1237.16
717.572	1249.17
717.763	1288.5
717.955	1250.72
718.146	1234.06
718.337	1178.65
718.528	1179.23
718.72	1121.49
718.911	1196.08
719.102	1146.68
719.293	1216.81
719.485	1183.68
719.676	1185.43
719.867	1137.57
720.058	1156.75
720.249	1164.5
720.44	1196.86
720.632	1242.78
720.823	1232.31
721.014	1354.76
721.205	1357.67
721.396	1399.13
721.587	1475.66
721.778	1518.67
721.969	1512.67
722.16	1579.7
722.351	1561.49
722.542	1658.94
722.733	1698.47
722.924	1615.16
723.115	1656.04
723.305	1658.75
723.496	1658.36
723.687	1565.75
723.878	1575.83
724.069	1570.21
724.26	1598.11
724.45	1545.6
724.641	1563.04
724.832	1621.55
725.023	1571.95
725.213	1579.9
725.404	1565.95
725.595	1596.56
725.785	1565.36
725.976	1614.77
726.167	1566.53
726.357	1597.33
726.548	1729.86
726.739	1634.92
726.929	1711.64
727.12	1737.61
727.31	1737.61
727.501	1675.61
727.691	1719.39
727.882	1709.13
728.072	1743.61
728.263	1765.89
728.453	1783.33
728.644	1764.92
728.834	1798.83
729.024	1745.36
729.215	1775.77
729.405	1823.63
729.596	1856.95
729.786	1893.38
729.976	1886.4
730.167	1874.59
730.357	1898.8
730.547	1870.9
730.737	1940.07
730.928	1931.74
731.118	1971.85
731.308	1921.08
731.498	1955.18
731.688	2049.73
731.879	2041.6
732.069	2080.15
732.259	2137.11
732.449	2102.04
732.639	2168.89
732.829	2186.13
733.019	2217.13
733.209	2304.7
733.399	2295.02
733.589	2327.18
733.779	2348.1
733.969	2366.51
734.159	2426.76
734.349	2507.56
734.539	2487.99
734.729	2475.2
734.919	2513.56
735.109	2526.35
735.299	2529.26
735.488	2525.58
735.678	2565.68
735.868	2544.56
736.058	2553.09
736.248	2556.38
736.437	2495.55
736.627	2496.51
736.817	2648.41
737.007	2603.27
737.196	2623.61
737.386	2649.38
737.576	2622.45
737.765	2640.66
737.955	2648.41
738.144	2764.47
738.334	2716.61
738.524	2651.71
738.713	2713.32
738.903	2691.42
739.092	2739.28
739.282	2748.77
739.471	2745.48
739.661	2732.11
739.85	2796.24
740.04	2798.18
740.229	2811.55
740.419	2796.05
740.608	2818.33
740.797	2816.97
740.987	2905.9
741.176	2860.76
741.365	2832.47
741.555	2840.8
741.744	2880.33
741.933	2870.45
742.123	2869.86
742.312	2926.05
742.501	2934.77
742.69	2956.28
742.88	2881.3
743.069	3033.58
743.258	2903.38
743.447	3008.59
743.636	2993.48
743.825	3002.78
744.014	2990.76
744.204	2984.76
744.393	2965.38
744.582	3059.74
744.771	3018.08
744.96	3011.88
745.149	3026.02
745.338	3000.84
745.527	3044.04
745.716	3008.01
745.905	3044.62
746.094	3062.26
746.283	3057.61
746.471	3083.96
746.66	3082.02
746.849	3113.79
747.038	3091.51
747.227	3022.34
747.416	3141.5
747.604	3038.04
747.793	3058.57
747.982	3075.62
748.171	3095.19
748.359	3134.14
748.548	3100.81
748.737	3080.47
748.926	3095.19
749.114	2985.92
749.303	3083.57
749.491	3067.1
749.68	3049.08
749.869	3115.92
750.057	3075.43
750.246	3044.43
750.434	3037.46
750.623	3047.72
750.811	3070.01
751	3083.57
751.188	3031.84
751.377	3068.84
751.565	3042.3
751.754	3029.32
751.942	3033.77
752.131	3085.51
752.319	2997.35
752.507	2989.41
752.696	3062.26
752.884	3086.67
753.072	3038.42
753.261	3058.96
753.449	3048.69
753.637	3007.04
753.825	3107.98
754.014	3036.1
754.202	3023.31
754.39	3096.74
754.578	3069.81
754.766	3004.71
754.955	3026.22
755.143	3125.03
755.331	3004.52
755.519	3031.64
755.707	2991.15
755.895	2993.86
756.083	3031.45
756.271	2960.54
756.459	3006.26
756.647	3089.96
756.835	2975.84
757.023	2974.88
757.211	2981.08
757.399	2979.14
757.587	2971.19
757.775	2903
757.963	2963.25
758.151	2941.16
758.339	2908.81
758.526	2888.27
758.714	2911.91
758.902	2830.92
759.09	2756.91
759.278	2556.38
759.465	2362.25
759.653	2074.53
759.841	1894.54
760.028	1658.56
760.216	1410.56
760.404	1318.53
760.591	1087.2
760.779	938.4
760.967	815.37
761.154	675.29
761.342	665.99
761.529	729.35
761.717	757.63
761.905	739.42
762.092	782.24
762.28	723.15
762.467	737.29
762.655	644.1
762.842	663.08
763.029	700.09
763.217	721.4
763.404	700.67
763.592	728.96
763.779	716.36
763.966	771.39
764.154	785.34
764.341	849.86
764.528	856.83
764.716	913.41
764.903	934.72
765.09	1002.14
765.277	1064.33
765.465	1158.11
765.652	1237.16
765.839	1275.32
766.026	1440.01
766.213	1435.36
766.4	1538.63
766.588	1723.27
766.775	1715.91
766.962	1819.17
767.149	1885.05
767.336	2023.96
767.523	1986.96
767.71	2092.16
767.897	2214.42
768.084	2244.06
768.271	2273.12
768.458	2309.94
768.645	2362.63
768.832	2373.48
769.019	2408.55
769.206	2424.83
769.392	2516.86
769.579	2599.01
769.766	2549.41
769.953	2536.62
770.14	2631.94
770.327	2593.19
770.513	2619.16
770.7	2706.54
770.887	2598.81
771.073	2666.24
771.26	2669.14
771.447	2565.49
771.634	2594.16
771.82	2714.87
772.007	2619.16
772.193	2669.14
772.38	2675.92
772.567	2617.61
772.753	2643.76
772.94	2718.16
773.126	2709.44
773.313	2669.53
773.499	2660.42
773.686	2689.29
773.872	2637.76
774.059	2646.86
774.245	2578.66
774.432	2615.86
774.618	2570.91
774.804	2604.43
774.991	2617.99
775.177	2649.38
775.363	2597.84
775.55	2647.64
775.736	2540.69
775.922	2553.09
776.109	2590.48
776.295	2605.59
776.481	2617.22
776.667	2575.95
776.853	2534.29
777.04	2544.95
777.226	2575.56
777.412	2647.83
777.598	2520.15
777.784	2541.08
777.97	2489.54
778.156	2615.09
778.342	2568.39
778.528	2518.41
778.715	2503.49
778.901	2501.36
779.087	2594.74
779.272	2478.88
779.458	2459.7
779.644	2495.93
779.83	2469.58
780.016	2555.99
780.202	2518.41
780.388	2503.29
780.574	2403.32
780.76	2460.67
780.946	2503.88
781.131	2463
781.317	2490.7
781.503	2447.69
781.689	2462.03
781.874	2568.98
782.06	2426.96
782.246	2462.03
782.432	2413.4
782.617	2442.07
782.803	2494.19
782.989	2378.72
783.174	2446.91
783.36	2369.61
783.545	2413.01
783.731	2376.78
783.916	2350.04
784.102	2401.38
784.288	2333.77
784.473	2386.85
784.659	2339.58
784.844	2377.17
785.029	2349.85
785.215	2356.63
785.4	2297.54
785.586	2410.49
785.771	2284.75
785.956	2365.93
786.142	2311.1
786.327	2317.1
786.512	2293.66
786.698	2270.22
786.883	2258.98
787.068	2282.42
787.254	2273.51
787.439	2284.36
787.624	2274.29
787.809	2231.86
787.994	2224.69
788.18	2292.3
788.365	2203.57
788.55	2213.26
788.735	2209.57
788.92	2191.17
789.105	2172.76
789.29	2229.53
789.475	2194.85
789.66	2186.32
789.845	2137.5
790.03	2123.16
790.215	2170.44
790.4	2208.8
790.585	2237.09
790.77	2162.69
790.955	2115.61
791.14	2130.72
791.325	2201.82
791.51	2073.18
791.695	2148.54
791.879	2099.14
792.064	2084.22
792.249	2204.92
792.434	2085.38
792.618	2126.65
792.803	2154.55
792.988	2117.93
793.173	2137.89
793.357	2187.49
793.542	2064.26
793.727	2113.28
793.911	2138.28
794.096	2122.19
794.281	2134.98
794.465	2177.99
794.65	2122.19
794.834	2153.19
795.019	2182.84
795.203	2211.51
795.388	2146.22
795.572	2182.06
795.757	2163.27
795.941	2159.78
796.126	2180.51
796.31	2074.34
796.494	2156.49
796.679	2126.26
796.863	2111.34
797.048	2207.44
797.232	2169.47
797.416	2141.18
797.601	2135.18
797.785	2204.54
797.969	2201.63
798.153	2134.4
798.338	2214.42
798.522	2213.84
798.706	2203.18
798.89	2213.64
799.074	2308.39
799.258	2248.32
799.443	2179.54
799.627	2171.79
799.811	2250.26
799.995	2159.78
800.179	2143.89
800.363	2152.61
800.547	2191.75
800.731	2208.22
800.915	2112.31
801.099	2150.67
801.283	2139.83
801.467	2170.24
801.651	2122
801.835	2226.24
802.019	2138.86
802.202	2176.06
802.386	2131.3
802.57	2121.23
802.754	2104.95
802.938	2098.94
803.121	2115.61
803.305	2188.26
803.489	2128.01
803.673	2126.65
803.856	2155.91
804.04	2104.76
804.224	2183.42
804.407	2150.09
804.591	2117.35
804.775	2114.44
804.958	2129.17
805.142	2226.04
805.326	2150.67
805.509	2140.6
805.693	2198.92
805.876	2204.73
806.06	2170.24
806.243	2185.94
806.427	2194.27
806.61	2191.36
806.794	2116.58
806.977	2213.84
807.16	2170.82
807.344	2229.53
807.527	2178.38
807.71	2150.67
807.894	2153.77
808.077	2181.48
808.26	2068.53
808.444	2114.06
808.627	2178.19
808.81	2121.03
808.993	2066.78
809.177	2092.16
809.36	2082.48
809.543	2090.61
809.726	2005.17
809.909	2032.88
810.092	1995.68
810.276	2035.59
810.459	2049.35
810.642	1985.6
810.825	2004.4
811.008	1998
811.191	1911.78
811.374	1932.52
811.557	1936.39
811.74	2010.21
811.923	1905.78
812.106	1878.46
812.289	1850.17
812.472	1859.67
812.654	1874.39
812.837	1857.34
813.02	1787.01
813.203	1781.2
813.386	1687.62
813.569	1675.99
813.751	1618.65
813.934	1688.2
814.117	1662.24
814.3	1600.43
814.482	1582.61
814.665	1558.78
814.848	1493.87
815.03	1468.3
815.213	1482.63
815.396	1479.53
815.578	1432.84
815.761	1411.92
815.943	1461.13
816.126	1357.86
816.309	1349.14
816.491	1312.72
816.674	1265.64
816.856	1295.47
817.039	1302.84
817.221	1396.61
817.403	1311.94
817.586	1333.06
817.768	1364.06
817.951	1264.86
818.133	1266.8
818.315	1300.71
818.498	1333.84
818.68	1407.65
818.862	1379.75
819.045	1360.77
819.227	1376.85
819.409	1323.96
819.591	1349.34
819.774	1333.06
819.956	1316.79
820.138	1397
820.32	1375.1
820.502	1415.4
820.684	1474.69
820.866	1476.05
821.048	1523.32
821.231	1538.24
821.413	1518.67
821.595	1509.18
821.777	1545.6
821.959	1512.08
822.141	1561.88
822.323	1444.66
822.505	1391.77
822.686	1360.96
822.868	1294.51
823.05	1243.55
823.232	1190.85
823.414	1163.53
823.596	1205.96
823.778	1187.94
823.96	1221.08
824.141	1236.38
824.323	1240.45
824.505	1296.25
824.687	1371.42
824.868	1374.14
825.05	1472.17
825.232	1455.32
825.413	1567.69
825.595	1500.46
825.777	1426.64
825.958	1481.67
826.14	1473.92
826.321	1512.86
826.503	1463.65
826.685	1512.47
826.866	1514.02
827.048	1543.47
827.229	1433.62
827.411	1420.83
827.592	1384.79
827.773	1369.49
827.955	1350.11
828.136	1329.19
828.318	1305.94
828.499	1372.78
828.68	1305.94
828.862	1316.59
829.043	1346.43
829.224	1314.07
829.406	1288.11
829.587	1317.37
829.768	1314.66
829.949	1313.11
830.131	1292.37
830.312	1385.76
830.493	1326.09
830.674	1340.81
830.855	1347.98
831.036	1315.43
831.218	1400.87
831.399	1428.77
831.58	1344.3
831.761	1393.51
831.942	1357.86
832.123	1336.16
832.304	1301.87
832.485	1310.97
832.666	1322.41
832.847	1333.45
833.028	1298.38
833.209	1330.93
833.389	1319.89
833.57	1273.19
833.751	1302.06
833.932	1342.75
834.113	1341.97
834.294	1316.4
834.475	1309.42
834.655	1396.42
834.836	1343.14
835.017	1338.1
835.198	1324.34
835.378	1390.02
835.559	1366.39
835.74	1361.93
835.92	1325.12
836.101	1321.63
836.281	1374.14
836.462	1377.43
836.643	1395.45
836.823	1416.37
837.004	1411.72
837.184	1457.25
837.365	1407.27
837.545	1413.47
837.726	1398.55
837.906	1432.07
838.087	1437.69
838.267	1370.45
838.448	1329.38
838.628	1372.97
838.808	1400.68
838.989	1449.5
839.169	1366.58
839.349	1387.5
839.53	1450.67
839.71	1405.72
839.89	1356.7
840.07	1441.95
840.251	1388.47
840.431	1415.02
840.611	1417.15
840.791	1367.74
840.971	1404.75
841.151	1359.8
841.332	1347.4
841.512	1414.44
841.692	1317.17
841.872	1397.19
842.052	1395.45
842.232	1427.61
842.412	1342.17
842.592	1357.67
842.772	1372.39
842.952	1420.05
843.132	1356.31
843.312	1337.91
843.492	1347.59
843.672	1423.93
843.851	1321.44
844.031	1363.67
844.211	1358.64
844.391	1351.27
844.571	1341.01
844.751	1393.12
844.93	1353.6
845.11	1320.86
845.29	1351.27
845.47	1373.17
845.649	1370.07
845.829	1400.1
846.009	1324.34
846.188	1372.39
846.368	1375.49
846.547	1326.09
846.727	1391.57
846.907	1316.21
847.086	1314.07
847.266	1374.72
847.445	1313.49
847.625	1311.75
847.804	1295.86
847.984	1319.89
848.163	1292.37
848.343	1303.03
848.522	1308.65
848.701	1292.96
848.881	1290.24
849.06	1333.64
849.239	1324.34
849.419	1315.24
849.598	1276.29
849.777	1280.56
849.957	1234.44
850.136	1201.89
850.315	1183.49
850.494	1190.85
850.674	1204.03
850.853	1271.26
851.032	1202.67
851.211	1251.69
851.39	1237.54
851.569	1212.36
851.748	1215.26
851.927	1245.88
852.107	1215.46
852.286	1195.11
852.465	1171.67
852.644	1287.72
852.823	1223.98
853.002	1220.69
853.181	1170.51
853.359	1226.11
853.538	1175.16
853.717	1246.84
853.896	1155.98
854.075	1055.42
854.254	1102.11
854.433	1005.63
854.611	1090.49
854.79	1009.5
854.969	1084.68
855.148	1087.58
855.327	1063.95
855.505	1083.71
855.684	1062.78
855.863	1121.88
856.041	1102.7
856.22	1113.55
856.399	1102.89
856.577	1190.46
856.756	1149
856.934	1249.36
857.113	1260.99
857.291	1176.9
857.47	1144.35
857.648	1173.61
857.827	1187.17
858.005	1195.31
858.184	1178.06
858.362	1229.79
858.541	1180
858.719	1158.11
858.898	1133.7
859.076	1142.8
859.254	1182.71
859.433	1142.8
859.611	1130.6
859.789	1094.37
859.967	1207.71
860.146	1212.74
860.324	1101.53
860.502	1111.8
860.68	1083.52
860.859	1103.08
861.037	1112
861.215	1137.18
861.393	1125.17
861.571	1131.95
861.749	1126.14
861.927	1152.1
862.105	1102.89
862.283	1098.43
862.461	1091.65
862.639	1073.44
862.817	1084.48
862.995	1121.68
863.173	1097.08
863.351	1044.38
863.529	1133.89
863.707	1119.75
863.885	1143.19
864.063	1051.93
864.241	1045.15
864.418	1130.79
864.596	1084.68
864.774	1019.77
864.952	1090.1
865.129	1093.98
865.307	1029.85
865.485	1004.85
865.663	1100.56
865.84	1022.68
866.018	1027.13
866.196	902.56
866.373	919.02
866.551	915.54
866.728	872.14
866.906	935.88
867.084	900.42
867.261	964.17
867.439	969.98
867.616	1004.08
867.794	968.24
867.971	1002.14
868.149	977.73
868.326	1019
868.503	1011.83
868.681	1000.59
868.858	977.54
869.035	948.47
869.213	1031.4
869.39	992.26
869.567	1091.07
869.745	1004.08
869.922	1004.08
870.099	995.36
870.276	1028.88
870.454	1000.4
870.631	997.88
870.808	978.12
870.985	1006.99
871.162	1050.58
871.339	1013.57
871.517	938.59
871.694	957.97
871.871	963.59
872.048	981.41
872.225	992.65
872.402	991.1
872.579	931.42
872.756	994.97
872.933	912.63
873.11	956.03
873.287	993.04
873.463	959.71
873.64	940.53
873.817	1012.6
873.994	957.77
874.171	930.26
874.348	971.92
874.524	870.78
874.701	950.8
874.878	905.46
875.055	935.69
875.231	913.79
875.408	958.35
875.585	883.37
875.762	941.11
875.938	951.38
876.115	926.19
876.291	915.15
876.468	903.14
876.645	876.01
876.821	906.82
876.998	890.54
877.174	918.25
877.351	885.12
877.527	882.99
877.704	916.12
877.88	881.44
878.057	884.34
878.233	946.92
878.409	857.22
878.586	901.2
878.762	868.07
878.938	880.86
879.115	803.36
879.291	874.27
879.467	822.54
879.644	837.84
879.82	893.06
879.996	836.29
880.172	843.07
880.349	869.62
880.525	855.28
880.701	816.14
880.877	830.87
881.053	843.07
881.229	820.99
881.405	886.67
881.581	815.76
881.757	841.33
881.933	833.97
882.109	879.31
882.285	874.66
882.461	794.44
882.637	824.67
882.813	759.76
882.989	820.79
883.165	885.31
883.341	817.31
883.517	859.74
883.693	892.48
883.869	853.73
884.044	820.79
884.22	871.94
884.396	860.12
884.572	856.44
884.747	885.7
884.923	848.69
885.099	889.77
885.275	889.96
885.45	799.87
885.626	807.62
885.801	797.74
885.977	802
886.153	788.83
886.328	848.11
886.504	825.25
886.679	840.56
886.855	806.65
887.03	842.88
887.206	860.32
887.381	825.06
887.557	859.93
887.732	851.99
887.908	832.81
888.083	848.89
888.258	849.47
888.434	820.6
888.609	814.21
888.784	878.92
888.96	812.85
889.135	814.4
889.31	797.74
889.485	830.68
889.661	829.13
889.836	884.34
890.011	831.26
890.186	811.69
890.361	818.66
890.537	841.72
890.712	827.58
890.887	821.18
891.062	812.85
891.237	870.78
891.412	816.34
891.587	833.97
891.762	832.61
891.937	856.44
892.112	775.84
892.287	839.39
892.462	778.56
892.637	762.86
892.812	743.1
892.987	780.11
893.161	721.6
893.336	763.25
893.511	782.63
893.686	770.42
893.861	739.42
894.035	754.34
894.21	761.12
894.385	710.16
894.56	768.68
894.734	684.4
894.909	675.87
895.084	674.32
895.258	665.8
895.433	704.93
895.608	671.61
895.782	627.82
895.957	620.27
896.131	626.66
896.306	583.45
896.48	576.67
896.655	591.01
896.829	534.24
897.004	539.47
897.178	574.15
897.353	554.59
897.527	567.95
897.701	560.4
897.876	516.42
898.05	598.95
898.224	575.51
898.399	619.49
898.573	553.23
898.747	472.82
898.921	536.76
899.096	447.44
899.27	448.61
899.444	452.09
899.618	469.92
899.792	472.05
899.967	485.81
900.141	536.37
900.315	472.82
900.489	473.79
900.663	484.26
900.837	499.37
901.011	432.14
901.185	540.64
901.359	510.8
901.533	512.35
901.707	498.01
901.881	457.52
902.055	441.63
902.229	478.44
902.403	551.68
902.576	490.07
902.75	496.85
902.924	562.92
903.098	528.24
903.272	591.01
903.446	605.15
903.619	578.61
903.793	605.15
903.967	574.74
904.14	633.83
904.314	626.47
904.488	611.93
904.661	635.18
904.835	634.41
905.009	627.05
905.182	663.86
905.356	622.2
905.529	604.77
905.703	577.45
905.876	592.95
906.05	567.76
906.223	543.54
906.397	513.32
906.57	527.07
906.744	478.83
906.917	460.42
907.09	499.75
907.264	492.78
907.437	465.27
907.61	423.61
907.784	453.06
907.957	470.11
908.13	436.59
908.304	479.22
908.477	415.47
908.65	446.09
908.823	402.11
908.996	495.49
909.17	433.3
909.343	422.06
909.516	444.34
909.689	423.61
909.862	438.34
910.035	417.8
910.208	393
910.381	404.82
910.554	486.97
910.727	418.57
910.9	406.95
911.073	432.33
911.246	466.24
911.419	475.92
911.592	472.05
911.765	416.25
911.938	386.8
912.11	422.45
912.283	437.76
912.456	458.49
912.629	443.96
912.802	394.16
912.974	360.26
913.147	346.11
913.32	307.95
913.493	324.61
913.665	354.06
913.838	373.63
914.01	341.27
914.183	349.6
914.356	388.35
914.528	383.12
914.701	438.34
914.873	415.67
915.046	373.82
915.218	332.36
915.391	276.75
915.563	297.1
915.736	346.31
915.908	374.98
916.081	375.18
916.253	366.46
916.425	355.8
916.598	389.9
916.77	384.48
916.942	339.53
917.115	293.8
917.287	367.23
917.459	331
917.632	307.36
917.804	268.42
917.976	336.81
918.148	344.37
918.32	359.09
918.493	366.07
918.665	415.09
918.837	364.13
919.009	395.33
919.181	422.45
919.353	394.74
919.525	378.08
919.697	385.64
919.869	380.99
920.041	421.09
920.213	492.97
920.385	419.93
920.557	412.76
920.729	402.88
920.901	398.62
921.073	399.2
921.244	403.66
921.416	397.46
921.588	393.19
921.76	357.54
921.932	428.26
922.103	400.17
922.275	415.47
922.447	388.35
922.619	352.12
922.79	385.25
922.962	351.34
923.134	404.43
923.305	349.99
923.477	303.3
923.648	334.88
923.82	346.69
923.991	306.01
924.163	289.15
924.335	310.08
924.506	305.04
924.677	373.43
924.849	305.23
925.02	320.73
925.192	343.98
925.363	332.16
925.535	316.47
925.706	309.3
925.877	392.81
926.049	305.81
926.22	331.19
926.391	337.01
926.562	339.72
926.734	298.06
926.905	343.21
927.076	271.13
927.247	270.75
927.419	287.6
927.59	265.13
927.761	283.92
927.932	256.41
928.103	286.05
928.274	237.23
928.445	235.68
928.616	230.25
928.787	236.06
928.958	260.67
929.129	244.2
929.3	229.28
929.471	201.19
929.642	155.47
929.813	114.78
929.984	227.54
930.155	130.86
930.326	180.27
930.496	153.14
930.667	82.81
930.838	133.19
931.009	113.23
931.18	119.04
931.35	158.57
931.521	133.19
931.692	96.57
931.863	63.82
932.033	97.73
932.204	103.93
932.374	106.45
932.545	54.91
932.716	118.27
932.886	87.85
933.057	38.44
933.227	50.07
933.398	132.8
933.568	43.09
933.739	6.47
933.909	33.41
934.08	86.3
934.25	-31.89
934.421	15.77
934.591	57.82
934.761	19.65
934.932	4.73
935.102	43.87
935.272	49.29
935.443	20.42
935.613	29.92
935.783	41.93
935.953	32.82
936.123	161.86
936.294	26.04
936.464	29.34
936.634	54.14
936.804	-3.41
936.974	-10.19
937.144	38.64
937.314	50.65
937.484	29.14
937.655	-2.24
937.825	79.9
937.995	11.12
938.165	70.99
938.334	32.63
938.504	40.57
938.674	20.62
938.844	56.07
939.014	88.04
939.184	77.58
939.354	123.11
939.524	108
939.694	84.75
939.863	52.39
940.033	127.76
940.203	105.67
940.373	92.11
940.542	88.62
940.712	73.9
940.882	110.32
941.051	107.8
941.221	103.15
941.391	113.62
941.56	57.04
941.73	59.37
941.899	182.78
942.069	68.09
942.238	112.65
942.408	54.91
942.577	84.17
942.747	76.42
942.916	46
943.086	68.09
943.255	101.22
943.425	71.38
943.594	51.62
943.763	-9.41
943.933	28.95
944.102	-6.89
944.271	37.86
944.441	83.2
944.61	44.45
944.779	78.74
944.948	128.73
945.117	23.72
945.287	27.79
945.456	7.64
945.625	26.04
945.794	72.93
945.963	38.83
946.132	57.62
946.301	57.43
946.47	96.95
946.639	5.31
946.808	32.24
946.977	59.56
947.146	79.52
947.315	26.82
947.484	97.73
947.653	49.29
947.822	16.55
947.991	43.67
948.16	89.79
948.329	103.54
948.498	50.46
948.666	64.79
948.835	81.45
949.004	14.81
949.173	35.34
949.341	58.4
949.51	43.09
949.679	96.95
949.847	58.59
950.016	133.96
950.185	117.69
950.353	36.7
950.522	35.15
950.69	90.75
950.859	51.62
951.028	99.47
951.196	102.77
951.365	44.06
951.533	77.19
951.701	100.44
951.87	92.69
952.038	9.38
952.207	53.55
952.375	102.38
952.543	40.19
952.712	52.59
952.88	35.92
953.048	112.07
953.217	73.51
953.385	74.67
953.553	98.12
953.721	31.47
953.89	62.08
954.058	14.03
954.226	35.54
954.394	57.82
954.562	37.67
954.73	59.17
954.898	42.12
955.067	83.39
955.235	54.72
955.403	103.35
955.571	143.45
955.739	78.16
955.907	43.67
956.075	43.67
956.243	15.97
956.41	81.84
956.578	27.59
956.746	30.69
956.914	41.74
957.082	87.85
957.25	95.6
957.418	21.01
957.585	53.94
957.753	97.92
957.921	43.87
958.089	55.3
958.256	82.42
958.424	83.2
958.592	59.75
958.759	37.86
958.927	75.64
959.095	30.89
959.262	37.47
959.43	56.65
959.597	35.92
959.765	55.49
959.932	25.66
960.1	84.55
960.267	46.19
960.435	49.49
960.602	107.03
960.77	14.42
960.937	21.78
961.104	71.77
961.272	19.84
961.439	40.57
961.606	88.62
961.774	110.52
961.941	66.54
962.108	57.43
962.275	55.88
962.443	97.15
962.61	87.27
962.777	124.08
962.944	86.3
963.111	83.59
963.278	74.67
963.446	63.24
963.613	71.57
963.78	89.2
963.947	84.75
964.114	81.84
964.281	144.81
964.448	118.07
964.615	66.73
964.782	117.3
964.949	105.29
965.116	81.07
965.282	120.98
965.449	42.9
965.616	41.35
965.783	100.44
965.95	70.41
966.117	32.44
966.283	54.52
966.45	84.75
966.617	98.7
966.784	105.87
966.95	91.92
967.117	119.04
967.284	61.89
967.45	55.88
967.617	142.68
967.784	113.23
967.95	147.33
968.117	96.37
968.283	118.46
968.45	182.4
968.616	101.41
968.783	126.21
968.949	94.24
969.116	130.86
969.282	97.73
969.449	104.51
969.615	103.35
969.781	40.96
969.948	93.85
970.114	59.17
970.28	139.38
970.447	95.02
970.613	132.6
970.779	117.49
970.945	95.02
971.112	102.96
971.278	84.75
971.444	93.08
971.61	119.62
971.776	72.54
971.942	107.8
972.108	146.55
972.275	78.55
972.441	99.86
972.607	145.78
972.773	72.35
972.939	92.3
973.105	105.87
973.271	67.7
973.437	65.18
973.602	82.23
973.768	100.64
973.934	46
974.1	107.61
974.266	39.22
974.432	94.63
974.598	61.11
974.763	125.63
974.929	88.82
975.095	122.72
975.261	58.01
975.426	55.88
975.592	80.49
975.758	141.9
975.923	18.29
976.089	58.59
976.255	83.59
976.42	77
976.586	103.54
976.751	109.94
976.917	172.71
977.082	99.47
977.248	56.46
977.413	-8.25
977.579	70.99
977.744	88.04
977.91	64.79
978.075	62.08
978.24	103.74
978.406	63.05
978.571	71.57
978.736	66.54
978.902	113.62
979.067	40.19
979.232	51.81
979.397	74.09
979.563	122.34
979.728	73.32
979.893	47.36
980.058	52.39
980.223	100.64
980.388	74.29
980.554	73.51
980.719	69.44
980.884	76.61
981.049	130.47
981.214	55.88
981.379	76.42
981.544	38.44
981.709	79.71
981.874	87.65
982.039	60.92
982.204	89.98
982.368	89.01
982.533	28.76
982.698	91.34
982.863	102.19
983.028	64.99
983.193	108
983.357	79.9
983.522	109.55
983.687	66.34
983.852	30.69
984.016	76.42
984.181	88.04
984.346	81.84
984.51	90.17
984.675	68.47
984.839	103.35
985.004	113.23
985.168	109.74
985.333	91.92
985.498	82.04
985.662	103.74
985.827	96.95
985.991	96.57
986.155	83.97
986.32	111.29
986.484	143.65
986.649	105.09
986.813	29.72
986.977	62.47
987.142	95.21
987.306	28.76
987.47	31.66
987.634	43.87
987.799	77
987.963	85.91
988.127	70.22
988.291	149.27
988.455	81.84
988.62	86.49
988.784	93.08
988.948	98.5
989.112	52.78
989.276	64.4
989.44	57.62
989.604	79.13
989.768	49.87
989.932	140.16
990.096	47.36
990.26	26.43
990.424	34.18
990.588	81.07
990.752	105.09
990.915	89.2
991.079	37.67
991.243	64.4
991.407	122.14
991.571	37.47
991.734	108
991.898	95.79
992.062	142.29
992.226	68.86
992.389	63.44
992.553	24.3
992.717	44.84
992.88	90.17
993.044	67.12
993.207	42.9
993.371	117.1
993.535	83.2
993.698	66.15
993.862	90.75
994.025	101.22
994.189	75.06
994.352	80.87
994.515	77
994.679	134.35
994.842	55.3
995.006	112.65
995.169	40.38
995.332	62.47
995.496	100.64
995.659	11.32
995.822	44.06
995.985	63.24
996.149	96.95
996.312	47.16
996.475	122.34
996.638	33.41
996.801	115.75
996.964	127.95
997.128	59.37
997.291	47.55
997.454	70.02
997.617	16.74
997.78	87.46
997.943	34.18
998.106	97.34
998.269	43.29
998.432	50.65
998.595	81.65
998.758	42.71
998.92	39.22
999.083	1.82
999.246	34.37
999.409	-7.67
999.572	25.66
999.735	37.09
999.897	92.89
1000.06	55.88
1000.223	25.46
1000.386	99.09
1000.548	57.43
1000.711	64.6
1000.874	56.46
1001.036	11.71
1001.199	74.29
1001.361	39.41
1001.524	62.08
1001.687	84.36
1001.849	33.6
1002.012	59.37
1002.174	70.99
1002.337	72.54
1002.499	43.09
1002.661	79.71
1002.824	31.08
1002.986	28.17
1003.149	68.67
1003.311	20.42
1003.473	95.4
1003.636	30.5
1003.798	81.65
1003.96	73.51
1004.123	47.94
1004.285	23.91
1004.447	35.92
1004.609	45.22
1004.771	108.39
1004.933	16.94
1005.096	18.1
1005.258	2.6
1005.42	30.11
1005.582	86.3
1005.744	21.78
1005.906	3.18
1006.068	51.04
1006.23	19.46
1006.392	10.35
1006.554	24.49
1006.716	66.73
1006.878	51.23
1007.04	18.29
1007.202	26.82
1007.363	55.69
1007.525	53.17
1007.687	44.06
1007.849	86.69
1008.011	-2.83
1008.172	-11.74
1008.334	40.96
1008.496	68.47
1008.658	16.16
1008.819	4.92
1008.981	1.44
1009.143	3.76
1009.304	23.72
1009.466	49.29
1009.627	79.32
1009.789	147.91
1009.95	60.14
1010.112	2.79
1010.273	49.87
1010.435	-7.28
1010.596	15.77
1010.758	27.4
1010.919	13.26
1011.081	14.61
1011.242	41.93
1011.403	70.41
1011.565	15.58
1011.726	50.65
1011.887	-10.96
1012.049	15.39
1012.21	50.26
1012.371	69.64
1012.532	-28.01
1012.693	63.05
1012.855	-4.96
1013.016	43.48
1013.177	51.81
1013.338	42.71
1013.499	83.2
1013.66	67.12
1013.821	64.99
1013.982	47.55
1014.143	35.34
1014.304	14.61
1014.465	40.19
1014.626	55.69
1014.787	14.81
1014.948	124.08
1015.109	-34.79
1015.27	75.64
1015.431	14.22
1015.592	15.58
1015.752	88.24
1015.913	42.9
1016.074	16.94
1016.235	33.6
1016.395	31.47
1016.556	43.09
1016.717	40.19
1016.877	67.31
1017.038	-15.03
1017.199	52.39
1017.359	31.47
1017.52	49.1
1017.681	31.66
1017.841	13.06
1018.002	20.81
1018.162	4.34
1018.323	91.92
1018.483	8.22
1018.644	31.47
1018.804	-0.89
1018.964	-16.19
1019.125	4.54
1019.285	34.18
1019.446	-28.4
1019.606	-19.29
1019.766	-50.49
1019.926	64.79
1020.087	39.22
1020.247	-25.3
1020.407	45.42
1020.567	80.49
1020.728	41.93
1020.888	-6.51
1021.048	8.61
1021.208	3.57
1021.368	4.73
1021.528	82.04
1021.688	64.4
1021.848	41.16
1022.008	3.57
1022.168	2.6
1022.328	26.43
1022.488	33.6
1022.648	23.33
1022.808	31.08
1022.968	44.26
1023.128	25.66
1023.288	-9.22
1023.448	18.29
1023.608	37.09
1023.767	38.25
1023.927	8.41
1024.087	-25.49
1024.247	-27.82
1024.406	7.25
1024.566	21.01
1024.726	-12.13
1024.885	8.02
1025.045	36.12
1025.205	-0.5
1025.364	1.44
1025.524	27.21
1025.683	28.37
1025.843	18.49
1026.003	3.18
1026.162	55.88
1026.321	57.62
1026.481	23.33
1026.64	3.76
1026.8	26.62
1026.959	27.79
1027.119	20.23
1027.278	-4.57
1027.437	8.61
1027.597	19.84
1027.756	34.57
1027.915	32.05
1028.074	53.75
1028.234	-26.27
1028.393	22.36
1028.552	16.55
1028.711	-57.85
1028.87	40.57
1029.03	-34.21
1029.189	-1.08
1029.348	-52.04
1029.507	-10.19
1029.666	-17.55
1029.825	-5.54
1029.984	2.6
1030.143	33.79
1030.302	-14.06
1030.461	-38.28
1030.62	-14.26
1030.779	15.58
1030.938	-3.02
1031.097	-33.44
1031.255	39.41
1031.414	32.24
1031.573	73.32
1031.732	-35.38
1031.891	15.39
1032.049	30.11
1032.208	39.99
1032.367	-12.9
1032.525	8.02
1032.684	17.91
1032.843	32.82
1033.001	-48.55
1033.16	148.1
1033.319	56.07
1033.477	25.85
1033.636	-39.44
1033.794	-49.32
1033.953	54.33
1034.111	28.17
1034.27	-17.36
1034.428	25.85
1034.587	-7.67
1034.745	12.48
1034.903	17.71
1035.062	19.07
1035.22	-22.2
1035.378	23.72
1035.537	-29.76
1035.695	45.03
1035.853	3.37
1036.011	47.16
1036.17	36.7
1036.328	-15.61
1036.486	12.67
1036.644	1.44
1036.802	-63.27
1036.96	-21.81
1037.119	1.05
1037.277	-33.44
1037.435	-42.16
1037.593	-5.73
1037.751	-12.32
1037.909	38.06
1038.067	38.06
