Data from oakcork_FLMT105791__305__17-34-51-051.txt Node

Date: Mon Mar 20 17:34:51 GMT 2023
User: antho
Spectrometer: FLMT10579
Trigger mode: 0
Integration Time (sec): 1.000000E-1
Scans to average: 10
Electric dark correction enabled: true
Nonlinearity correction enabled: false
Boxcar width: 0
XAxis mode: Wavelengths
Number of Pixels in Spectrum: 3648
>>>>>Begin Spectral Data<<<<<
345.248	-149.88
345.464	-149.88
345.681	-149.88
345.898	-158.4
346.114	-131.28
346.331	-32.86
346.548	20.23
346.764	-9.61
346.981	-10.19
347.197	-1.28
347.414	19.07
347.631	-31.5
347.847	62.08
348.064	7.06
348.28	29.34
348.497	-43.9
348.713	-8.44
348.93	28.56
349.146	34.57
349.363	40.77
349.579	24.11
349.796	-8.64
350.012	-4.38
350.229	7.44
350.445	9.57
350.661	-14.45
350.878	8.99
351.094	16.16
351.311	19.26
351.527	8.02
351.743	-9.99
351.96	45.42
352.176	27.01
352.392	26.62
352.609	14.03
352.825	-0.89
353.041	10.35
353.257	13.64
353.474	15
353.69	13.45
353.906	3.57
354.122	-12.13
354.339	62.85
354.555	1.24
354.771	3.18
354.987	56.85
355.203	32.44
355.42	-7.48
355.636	2.6
355.852	-12.51
356.068	2.99
356.284	-38.67
356.5	84.17
356.716	17.52
356.932	21.59
357.148	33.79
357.364	3.37
357.58	44.06
357.796	54.91
358.012	56.46
358.228	55.3
358.444	-69.86
358.66	48.32
358.876	39.02
359.092	-7.28
359.308	9.96
359.524	20.62
359.74	17.52
359.956	-9.22
360.172	24.49
360.388	35.54
360.604	8.41
360.819	73.9
361.035	2.41
361.251	30.69
361.467	-23.56
361.683	46.58
361.898	19.26
362.114	33.79
362.33	40.57
362.546	19.84
362.762	-5.93
362.977	22.36
363.193	-44.67
363.409	39.02
363.624	-2.83
363.84	-4.18
364.056	13.45
364.271	9.77
364.487	41.35
364.703	6.28
364.918	2.21
365.134	5.89
365.35	19.07
365.565	83
365.781	28.37
365.996	24.49
366.212	42.32
366.427	53.36
366.643	-3.79
366.858	34.37
367.074	-9.99
367.289	70.6
367.505	79.9
367.72	-36.15
367.936	17.13
368.151	40.57
368.367	30.11
368.582	12.48
368.798	-17.16
369.013	80.68
369.228	6.67
369.444	31.86
369.659	61.3
369.874	29.14
370.09	51.42
370.305	-26.66
370.52	17.71
370.736	80.87
370.951	11.12
371.166	65.18
371.381	85.52
371.597	36.89
371.812	3.57
372.027	-22.2
372.242	8.22
372.458	95.79
372.673	44.06
372.888	26.43
373.103	29.34
373.318	113.04
373.533	39.8
373.749	56.27
373.964	-13.68
374.179	54.72
374.394	8.8
374.609	72.74
374.824	2.41
375.039	35.54
375.254	-1.47
375.469	62.27
375.684	36.89
375.899	86.1
376.114	25.46
376.329	12.09
376.544	37.09
376.759	44.84
376.974	-3.99
377.189	22.36
377.404	12.67
377.619	45.61
377.834	-22.01
378.049	-22.98
378.264	1.24
378.478	-6.12
378.693	4.92
378.908	55.88
379.123	-5.73
379.338	61.5
379.553	31.27
379.767	8.02
379.982	41.93
380.197	59.75
380.412	11.32
380.626	33.6
380.841	84.75
381.056	42.51
381.271	102.38
381.485	6.86
381.7	0.08
381.915	44.84
382.129	8.8
382.344	11.12
382.559	19.46
382.773	56.46
382.988	-29.76
383.202	46
383.417	9.57
383.632	130.86
383.846	18.87
384.061	22.36
384.275	9.77
384.49	55.49
384.704	34.18
384.919	47.36
385.133	29.92
385.348	36.89
385.562	-29.37
385.777	67.5
385.991	29.92
386.206	-9.03
386.42	8.99
386.634	60.53
386.849	45.22
387.063	45.42
387.277	-7.67
387.492	-8.25
387.706	-14.26
387.92	7.06
388.135	28.95
388.349	26.82
388.563	-3.6
388.778	49.49
388.992	33.02
389.206	32.24
389.42	92.69
389.635	28.17
389.849	47.55
390.063	62.66
390.277	42.9
390.491	66.54
390.706	58.01
390.92	42.32
391.134	18.87
391.348	65.76
391.562	3.37
391.776	13.45
391.99	15
392.205	61.5
392.419	7.25
392.633	42.51
392.847	42.12
393.061	-8.25
393.275	96.18
393.489	36.7
393.703	51.81
393.917	74.09
394.131	28.76
394.345	47.36
394.559	70.22
394.773	39.99
394.986	40.57
395.2	32.44
395.414	40.57
395.628	3.18
395.842	43.67
396.056	16.55
396.27	-1.08
396.484	44.45
396.697	46.39
396.911	70.02
397.125	86.3
397.339	54.52
397.553	23.52
397.766	107.22
397.98	75.25
398.194	65.37
398.408	20.04
398.621	26.62
398.835	93.08
399.049	45.81
399.262	64.21
399.476	85.91
399.69	62.47
399.903	95.02
400.117	22.94
400.331	36.51
400.544	43.67
400.758	163.02
400.971	66.54
401.185	89.01
401.398	11.9
401.612	102.77
401.826	66.54
402.039	66.92
402.253	20.04
402.466	51.04
402.68	50.46
402.893	70.41
403.106	47.55
403.32	42.32
403.533	77.19
403.747	60.53
403.96	56.07
404.174	78.35
404.387	4.54
404.6	51.23
404.814	53.17
405.027	38.64
405.24	38.83
405.454	65.95
405.667	100.44
405.88	-8.64
406.094	59.56
406.307	86.88
406.52	77.39
406.733	30.89
406.947	18.68
407.16	105.67
407.373	92.3
407.586	44.45
407.799	36.7
408.012	90.17
408.226	46.58
408.439	101.6
408.652	25.27
408.865	68.86
409.078	79.52
409.291	84.55
409.504	51.04
409.717	83.2
409.93	68.09
410.143	69.64
410.357	5.12
410.57	33.02
410.783	46.97
410.996	61.11
411.209	23.14
411.421	87.07
411.634	52.2
411.847	25.07
412.06	47.36
412.273	51.62
412.486	64.21
412.699	158.18
412.912	65.95
413.125	88.04
413.338	56.27
413.55	61.3
413.763	49.49
413.976	64.6
414.189	33.6
414.402	62.08
414.615	101.99
414.827	61.11
415.04	84.55
415.253	83
415.466	91.14
415.678	134.93
415.891	62.85
416.104	58.59
416.316	42.51
416.529	54.14
416.742	65.57
416.954	94.24
417.167	63.82
417.38	61.5
417.592	91.34
417.805	26.04
418.017	29.72
418.23	90.17
418.442	25.66
418.655	55.88
418.868	55.1
419.08	76.42
419.293	90.75
419.505	89.79
419.718	58.79
419.93	96.37
420.142	38.44
420.355	91.34
420.567	108.77
420.78	51.42
420.992	68.28
421.205	124.85
421.417	31.66
421.629	57.04
421.842	30.89
422.054	17.91
422.266	93.47
422.479	86.49
422.691	49.87
422.903	80.87
423.115	54.14
423.328	52.78
423.54	88.82
423.752	60.72
423.964	48.71
424.177	68.28
424.389	65.95
424.601	120.98
424.813	110.13
425.025	95.6
425.238	82.81
425.45	59.75
425.662	33.02
425.874	315.89
426.086	54.52
426.298	82.04
426.51	84.17
426.722	77.58
426.934	56.85
427.146	93.08
427.358	29.92
427.57	90.75
427.782	65.18
427.994	86.49
428.206	66.73
428.418	20.42
428.63	88.43
428.842	87.46
429.054	94.63
429.266	93.08
429.478	40.96
429.69	56.27
429.902	39.61
430.114	111.49
430.325	95.4
430.537	64.4
430.749	99.67
430.961	31.86
431.173	95.21
431.384	97.34
431.596	2.6
431.808	56.46
432.02	90.56
432.231	98.89
432.443	103.74
432.655	75.45
432.867	56.46
433.078	89.59
433.29	128.92
433.502	114.39
433.713	102.77
433.925	76.22
434.136	123.5
434.348	66.54
434.56	33.99
434.771	182.01
434.983	40.57
435.194	55.69
435.406	45.03
435.617	114.2
435.829	128.73
436.04	120.01
436.252	88.82
436.463	141.71
436.675	101.6
436.886	87.65
437.098	86.69
437.309	127.37
437.521	69.05
437.732	115.55
437.943	104.51
438.155	69.83
438.366	30.5
438.578	146.75
438.789	91.53
439	133.38
439.211	92.89
439.423	113.42
439.634	103.35
439.845	115.75
440.057	100.44
440.268	103.35
440.479	65.57
440.69	101.99
440.902	70.6
441.113	110.52
441.324	60.53
441.535	91.72
441.746	131.25
441.957	49.68
442.168	58.01
442.38	100.44
442.591	109.55
442.802	54.91
443.013	54.72
443.224	85.91
443.435	58.4
443.646	66.73
443.857	77.77
444.068	64.79
444.279	49.68
444.49	122.72
444.701	70.22
444.912	183.95
445.123	123.69
445.334	104.12
445.545	118.27
445.756	84.75
445.967	75.06
446.178	112.07
446.388	112.07
446.599	142.48
446.81	116.52
447.021	93.08
447.232	136.87
447.443	125.44
447.653	80.1
447.864	116.14
448.075	104.9
448.286	144.03
448.496	113.81
448.707	141.13
448.918	67.31
449.129	165.73
449.339	91.34
449.55	144.62
449.761	84.94
449.971	158.57
450.182	79.13
450.393	123.3
450.603	69.64
450.814	131.64
451.024	108.97
451.235	118.46
451.446	156.63
451.656	152.17
451.867	102.77
452.077	111.87
452.288	163.6
452.498	172.9
452.709	99.47
452.919	131.64
453.13	108.77
453.34	151.98
453.55	71.19
453.761	148.3
453.971	133.77
454.182	127.18
454.392	140.74
454.602	198.48
454.813	133.57
455.023	132.41
455.233	98.89
455.444	127.57
455.654	63.82
455.864	119.62
456.075	86.88
456.285	103.54
456.495	109.74
456.705	147.72
456.916	140.74
457.126	164.18
457.336	100.64
457.546	63.63
457.756	93.85
457.967	163.22
458.177	90.17
458.387	125.82
458.597	101.8
458.807	132.6
459.017	134.15
459.227	108.77
459.437	140.35
459.647	126.79
459.857	114.97
460.068	100.05
460.278	145.2
460.488	149.27
460.698	166.51
460.908	114
461.117	75.25
461.327	102.96
461.537	108
461.747	126.79
461.957	79.9
462.167	221.53
462.377	149.27
462.587	119.82
462.797	161.28
463.007	136.09
463.216	139.19
463.426	165.15
463.636	158.57
463.846	86.3
464.056	93.27
464.265	171.16
464.475	109.16
464.685	123.11
464.895	144.23
465.104	130.28
465.314	146.94
465.524	152.37
465.733	120.01
465.943	197.12
466.153	165.54
466.362	170
466.572	121.37
466.782	124.27
466.991	164.96
467.201	175.81
467.41	106.64
467.62	144.81
467.829	106.06
468.039	145.58
468.249	131.64
468.458	117.1
468.668	164.38
468.877	175.62
469.086	177.36
469.296	165.35
469.505	99.28
469.715	192.67
469.924	151.98
470.134	182.4
470.343	171.74
470.552	145.78
470.762	130.47
470.971	123.5
471.18	141.52
471.39	145.39
471.599	131.64
471.808	155.47
472.018	114
472.227	171.55
472.436	169.61
472.645	131.05
472.855	132.41
473.064	174.45
473.273	132.22
473.482	167.48
473.691	220.18
473.901	176.78
474.11	135.51
474.319	220.18
474.528	175.62
474.737	208.17
474.946	179.68
475.155	186.66
475.364	199.83
475.573	174.45
475.783	163.02
475.992	189.18
476.201	200.61
476.41	161.08
476.619	145.2
476.828	172.32
477.037	142.68
477.245	149.46
477.454	217.27
477.663	154.69
477.872	152.56
478.081	225.22
478.29	142.1
478.499	256.02
478.708	187.63
478.917	222.7
479.125	168.45
479.334	191.12
479.543	169.42
479.752	194.99
479.961	161.28
480.169	194.22
480.378	149.85
480.587	284.89
480.796	226.76
481.004	183.17
481.213	221.34
481.422	208.36
481.63	200.42
481.839	194.02
482.048	205.65
482.256	207.97
482.465	198.28
482.674	189.95
482.882	227.54
483.091	252.53
483.299	218.82
483.508	211.46
483.716	194.41
483.925	196.73
484.134	190.34
484.342	182.98
484.551	254.86
484.759	237.03
484.967	202.35
485.176	235.87
485.384	229.28
485.593	235.87
485.801	221.92
486.01	212.43
486.218	254.28
486.426	184.92
486.635	193.25
486.843	196.15
487.051	212.62
487.26	196.54
487.468	203.9
487.676	243.62
487.885	181.04
488.093	209.33
488.301	221.15
488.509	217.66
488.717	234.51
488.926	207
489.134	223.08
489.342	217.85
489.55	180.85
489.758	204.48
489.967	177.36
490.175	321.7
490.383	208.75
490.591	270.55
490.799	190.73
491.007	263.19
491.215	209.72
491.423	212.23
491.631	244.59
491.839	243.43
492.047	244.01
492.255	205.26
492.463	209.91
492.671	233.16
492.879	266.1
493.087	215.53
493.295	261.06
493.503	254.66
493.711	234.71
493.919	275.78
494.127	239.94
494.334	257.18
494.542	212.82
494.75	235.29
494.958	243.23
495.166	244.59
495.374	223.47
495.581	244.59
495.789	268.42
495.997	293.8
496.205	239.75
496.412	245.17
496.62	267.26
496.828	262.41
497.035	225.99
497.243	259.12
497.451	231.61
497.658	268.61
497.866	283.53
498.074	290.31
498.281	262.41
498.489	321.12
498.696	279.27
498.904	263
499.112	250.4
499.319	314.92
499.527	264.55
499.734	289.35
499.942	235.29
500.149	217.47
500.357	242.26
500.564	215.53
500.771	296.13
500.979	234.71
501.186	239.94
501.394	289.93
501.601	269
501.808	265.71
502.016	274.81
502.223	259.9
502.43	263.77
502.638	257.76
502.845	230.83
503.052	301.75
503.26	254.28
503.467	351.93
503.674	285.66
503.881	263
504.089	357.93
504.296	303.1
504.503	241.88
504.71	298.45
504.917	239.16
505.125	282.76
505.332	272.3
505.539	305.81
505.746	323.83
505.953	297.87
506.16	270.55
506.367	315.89
506.574	321.12
506.781	332.94
506.988	278.5
507.195	275.78
507.402	280.82
507.609	307.95
507.816	296.71
508.023	295.35
508.23	263.96
508.437	286.44
508.644	292.25
508.851	329.64
509.058	319.76
509.265	289.54
509.472	288.96
509.679	401.52
509.885	286.83
510.092	290.12
510.299	305.23
510.506	305.62
510.713	316.47
510.92	317.83
511.126	320.34
511.333	348.24
511.54	332.94
511.746	335.46
511.953	334.88
512.16	367.23
512.367	281.6
512.573	303.1
512.78	313.56
512.987	331.78
513.193	305.23
513.4	277.53
513.606	312.21
513.813	335.84
514.02	299.03
514.226	390.87
514.433	340.11
514.639	292.83
514.846	315.89
515.052	294.58
515.259	322.28
515.465	284.5
515.672	309.11
515.878	412.18
516.085	326.54
516.291	369.94
516.497	299.23
516.704	312.4
516.91	309.11
517.117	293.61
517.323	272.88
517.529	332.55
517.736	301.94
517.942	339.33
518.148	311.24
518.354	322.28
518.561	318.6
518.767	309.11
518.973	358.71
519.179	334.68
519.386	350.38
519.592	321.7
519.798	288.57
520.004	368.01
520.21	306.2
520.417	379.63
520.623	382.93
520.829	368.78
521.035	341.46
521.241	363.94
521.447	402.49
521.653	460.04
521.859	362.58
522.065	379.05
522.271	447.64
522.477	378.66
522.683	428.07
522.889	413.92
523.095	388.35
523.301	379.44
523.507	370.33
523.713	410.44
523.919	338.36
524.125	402.69
524.331	366.84
524.537	444.15
524.742	407.92
524.948	422.26
525.154	402.69
525.36	513.12
525.566	419.74
525.772	457.52
525.977	347.47
526.183	451.32
526.389	457.32
526.595	414.7
526.8	407.14
527.006	370.53
527.212	385.25
527.417	370.33
527.623	357.54
527.829	415.47
528.034	417.02
528.24	406.37
528.446	410.24
528.651	439.5
528.857	441.44
529.062	472.24
529.268	424.39
529.473	433.49
529.679	385.83
529.884	475.54
530.09	436.01
530.295	480.96
530.501	473.6
530.706	426.71
530.912	410.82
531.117	440.27
531.323	429.23
531.528	463.33
531.733	457.91
531.939	427.29
532.144	465.85
532.35	436.59
532.555	456.94
532.76	494.72
532.966	498.4
533.171	474.57
533.376	427.87
533.581	435.04
533.787	464.49
533.992	448.02
534.197	530.37
534.402	459.84
534.607	463.91
534.813	531.72
535.018	467.98
535.223	450.54
535.428	501.69
535.633	492.78
535.838	514.67
536.043	465.85
536.249	527.85
536.454	487.74
536.659	466.24
536.864	453.26
537.069	468.56
537.274	503.82
537.479	471.66
537.684	495.69
537.889	464.3
538.094	557.3
538.299	507.89
538.504	523
538.708	493.94
538.913	520.68
539.118	509.44
539.323	539.47
539.528	483.09
539.733	510.41
539.938	501.11
540.142	545.48
540.347	480.19
540.552	479.8
540.757	495.69
540.962	490.65
541.166	439.69
541.371	443.76
541.576	499.95
541.781	439.69
541.985	476.31
542.19	532.69
542.395	572.99
542.599	547.8
542.804	525.52
543.008	545.29
543.213	477.47
543.418	450.16
543.622	512.54
543.827	436.79
544.031	529.2
544.236	534.44
544.44	479.99
544.645	623.75
544.849	526.88
545.054	521.45
545.258	559.24
545.463	550.13
545.667	490.65
545.872	544.7
546.076	516.03
546.281	550.52
546.485	503.24
546.689	534.05
546.894	543.15
547.098	523.2
547.302	466.62
547.507	500.72
547.711	529.01
547.915	572.41
548.119	523.2
548.324	513.32
548.528	550.9
548.732	511.19
548.936	534.44
549.141	568.73
549.345	516.61
549.549	488.13
549.753	520.1
549.957	575.32
550.161	600.7
550.366	535.6
550.57	493.17
550.774	503.44
550.978	515.25
551.182	527.07
551.386	505.18
551.59	506.15
551.794	495.1
551.998	537.54
552.202	532.69
552.406	488.52
552.61	552.84
552.814	550.32
553.018	589.07
553.222	532.3
553.426	517.77
553.63	579.58
553.833	507.5
554.037	458.1
554.241	551.49
554.445	503.82
554.649	501.89
554.853	527.27
555.056	563.3
555.26	567.18
555.464	524.75
555.668	548.39
555.871	528.24
556.075	576.28
556.279	508.86
556.483	501.89
556.686	553.42
556.89	530.37
557.094	549.55
557.297	522.81
557.501	567.37
557.704	462.17
557.908	546.64
558.112	496.07
558.315	572.22
558.519	543.54
558.722	534.82
558.926	517.39
559.129	484.26
559.333	437.17
559.536	472.44
559.74	463.52
559.943	506.15
560.147	490.26
560.35	497.24
560.553	478.44
560.757	449.38
560.96	517.58
561.164	489.29
561.367	545.67
561.57	493.17
561.774	496.65
561.977	496.07
562.18	452.67
562.384	560.01
562.587	514.87
562.79	466.82
562.993	478.44
563.197	533.08
563.4	556.91
563.603	540.44
563.806	573.38
564.009	454.03
564.212	499.56
564.416	456.36
564.619	492.78
564.822	471.47
565.025	520.87
565.228	468.56
565.431	484.45
565.634	424.19
565.837	474.37
566.04	443.96
566.243	479.22
566.446	404.04
566.649	470.11
566.852	449.57
567.055	466.62
567.258	497.24
567.461	492.59
567.664	523
567.867	413.54
568.07	469.92
568.273	471.86
568.475	483.67
568.678	455
568.881	482.32
569.084	482.32
569.287	391.84
569.489	423.61
569.692	468.56
569.895	467.01
570.098	411.21
570.3	396.68
570.503	392.61
570.706	384.28
570.909	416.25
571.111	377.5
571.314	390.68
571.516	413.15
571.719	439.31
571.922	410.63
572.124	406.95
572.327	424.19
572.529	351.15
572.732	393.97
572.935	419.16
573.137	470.5
573.34	409.08
573.542	420.9
573.745	405.21
573.947	414.7
574.15	407.34
574.352	364.13
574.554	468.37
574.757	377.11
574.959	405.98
575.162	389.13
575.364	373.24
575.566	473.79
575.769	368.2
575.971	393.58
576.173	303.88
576.376	383.31
576.578	418.77
576.78	431.94
576.982	339.14
577.185	387.19
577.387	360.64
577.589	342.04
577.791	416.83
577.993	404.24
578.196	350.76
578.398	393.39
578.6	428.07
578.802	319.18
579.004	347.66
579.206	351.34
579.408	381.57
579.61	359.29
579.812	401.72
580.014	367.23
580.216	356.38
580.418	346.89
580.62	336.04
580.822	311.43
581.024	369.94
581.226	403.85
581.428	374.59
581.63	425.16
581.832	341.66
582.034	379.05
582.236	353.48
582.438	389.13
582.64	421.67
582.841	422.06
583.043	431.36
583.245	374.79
583.447	383.51
583.649	350.96
583.85	392.03
584.052	416.44
584.254	339.33
584.456	417.99
584.657	348.05
584.859	351.15
585.061	348.83
585.262	350.18
585.464	300.78
585.666	400.17
585.867	333.13
586.069	415.09
586.27	369.75
586.472	374.4
586.674	365.29
586.875	358.9
587.077	340.88
587.278	374.21
587.48	376.14
587.681	447.44
587.883	341.85
588.084	295.74
588.285	335.26
588.487	357.93
588.688	374.59
588.89	323.83
589.091	312.4
589.292	354.25
589.494	313.18
589.695	325.58
589.896	292.06
590.098	284.89
590.299	342.04
590.5	282.76
590.702	312.4
590.903	307.36
591.104	348.44
591.305	333.91
591.507	372.46
591.708	366.46
591.909	319.38
592.11	379.63
592.311	338.36
592.512	324.8
592.714	313.95
592.915	284.5
593.116	327.51
593.317	322.09
593.518	303.1
593.719	312.79
593.92	363.94
594.121	376.53
594.322	324.03
594.523	331.97
594.724	285.66
594.925	302.52
595.126	335.46
595.327	365.88
595.528	320.93
595.729	321.31
595.929	356.77
596.13	349.6
596.331	324.41
596.532	356.19
596.733	382.54
596.934	365.29
597.135	358.13
597.335	361.03
597.536	296.32
597.737	341.66
597.938	302.13
598.138	342.43
598.339	320.73
598.54	352.7
598.74	304.46
598.941	340.3
599.142	355.41
599.342	346.89
599.543	311.82
599.744	325.77
599.944	311.63
600.145	308.91
600.345	336.04
600.546	406.37
600.746	371.11
600.947	394.94
601.147	342.43
601.348	362.78
601.548	303.68
601.749	346.5
601.949	288.96
602.15	290.7
602.35	328.09
602.551	360.26
602.751	314.53
602.951	308.53
603.152	256.02
603.352	355.41
603.552	326.16
603.753	370.14
603.953	331.78
604.153	315.89
604.354	330.03
604.554	305.81
604.754	328.68
604.954	288.38
605.155	317.44
605.355	286.63
605.555	355.22
605.755	365.88
605.955	319.38
606.155	364.71
606.356	317.44
606.556	353.48
606.756	337.59
606.956	273.07
607.156	380.6
607.356	313.18
607.556	351.34
607.756	329.45
607.956	372.46
608.156	353.86
608.356	282.76
608.556	342.24
608.756	338.36
608.956	288.18
609.156	320.34
609.356	303.1
609.556	301.75
609.755	324.03
609.955	291.86
610.155	330.81
610.355	338.75
610.555	294.19
610.755	324.99
610.954	249.82
611.154	316.47
611.354	339.53
611.554	305.23
611.753	285.47
611.953	234.32
612.153	328.48
612.352	336.62
612.552	305.81
612.752	224.05
612.951	275.01
613.151	277.33
613.351	261.06
613.55	289.15
613.75	330.81
613.949	266.1
614.149	298.84
614.348	312.98
614.548	268.42
614.747	245.56
614.947	265.71
615.146	240.13
615.346	310.08
615.545	288.38
615.745	330.23
615.944	349.41
616.144	292.45
616.343	318.6
616.542	283.92
616.742	301.75
616.941	281.4
617.14	259.31
617.34	294.77
617.539	278.69
617.738	250.01
617.938	329.06
618.137	304.85
618.336	256.41
618.535	312.21
618.734	271.91
618.934	318.02
619.133	300.39
619.332	316.86
619.531	263.77
619.73	275.2
619.929	340.69
620.128	313.56
620.328	334.1
620.527	275.2
620.726	271.52
620.925	314.92
621.124	280.05
621.323	271.52
621.522	248.46
621.721	256.8
621.92	241.3
622.119	279.27
622.318	276.36
622.517	276.36
622.715	269.39
622.914	234.13
623.113	270.75
623.312	223.86
623.511	268.61
623.71	268.42
623.909	284.31
624.107	337.78
624.306	241.1
624.505	227.54
624.704	242.46
624.902	276.17
625.101	320.54
625.3	271.33
625.499	257.38
625.697	264.93
625.896	242.26
626.095	276.56
626.293	200.22
626.492	221.34
626.69	282.18
626.889	250.79
627.088	270.94
627.286	239.75
627.485	223.67
627.683	228.7
627.882	289.35
628.08	209.52
628.279	254.47
628.477	300.78
628.676	225.6
628.874	289.54
629.073	264.55
629.271	221.34
629.469	256.41
629.668	236.45
629.866	261.25
630.065	230.25
630.263	263.77
630.461	225.22
630.66	231.22
630.858	278.88
631.056	283.34
631.254	270.55
631.453	210.3
631.651	280.63
631.849	249.43
632.047	270.75
632.245	223.86
632.444	264.35
632.642	249.24
632.84	276.36
633.038	234.51
633.236	211.65
633.434	204.29
633.632	210.3
633.83	205.84
634.028	263.58
634.227	235.1
634.425	296.51
634.623	233.74
634.821	255.63
635.019	236.84
635.216	214.17
635.414	261.06
635.612	242.26
635.81	250.21
636.008	297.87
636.206	217.85
636.404	268.81
636.602	191.5
636.8	255.44
636.997	259.7
637.195	297.29
637.393	243.62
637.591	304.46
637.789	295.16
637.986	214.37
638.184	224.63
638.382	262.22
638.58	286.63
638.777	321.51
638.975	233.93
639.173	240.91
639.37	256.8
639.568	280.63
639.765	273.85
639.963	216.5
640.161	271.52
640.358	253.7
640.556	230.06
640.753	219.98
640.951	210.1
641.148	227.73
641.346	234.13
641.543	238.2
641.741	286.44
641.938	189.95
642.136	240.71
642.333	203.13
642.531	266.1
642.728	290.12
642.925	256.6
643.123	218.82
643.32	223.47
643.517	235.48
643.715	252.15
643.912	210.49
644.109	240.52
644.306	208.75
644.504	243.04
644.701	233.93
644.898	256.02
645.095	218.82
645.293	243.81
645.49	252.92
645.687	238.39
645.884	272.88
646.081	200.8
646.278	209.91
646.475	196.54
646.672	206.81
646.87	227.54
647.067	232.96
647.264	219.98
647.461	152.56
647.658	166.9
647.855	246.91
648.052	222.7
648.249	175.62
648.446	199.83
648.642	209.91
648.839	212.23
649.036	188.6
649.233	190.15
649.43	163.22
649.627	201.97
649.824	184.33
650.021	215.53
650.217	182.4
650.414	201.58
650.611	218.24
650.808	216.5
651.004	216.3
651.201	228.7
651.398	251.76
651.595	215.72
651.791	202.35
651.988	232.96
652.185	208.55
652.381	245.95
652.578	133.38
652.775	176.78
652.971	169.22
653.168	212.04
653.364	243.62
653.561	154.5
653.757	182.98
653.954	182.2
654.15	176.97
654.347	255.63
654.543	193.05
654.74	150.04
654.936	159.92
655.133	196.35
655.329	226.57
655.525	194.8
655.722	219.21
655.918	200.8
656.115	225.8
656.311	191.12
656.507	147.33
656.704	117.88
656.9	170.77
657.096	159.15
657.292	149.46
657.489	216.5
657.685	193.83
657.881	167.67
658.077	184.33
658.273	191.12
658.47	242.85
658.666	185.69
658.862	223.47
659.058	181.04
659.254	218.82
659.45	136.09
659.646	200.03
659.842	182.4
660.038	209.91
660.234	159.73
660.43	189.37
660.626	243.81
660.822	199.45
661.018	229.09
661.214	165.93
661.41	168.64
661.606	213.98
661.802	217.66
661.998	193.05
662.194	149.85
662.39	185.88
662.586	185.5
662.781	202.55
662.977	194.6
663.173	220.95
663.369	169.8
663.564	187.63
663.76	251.18
663.956	176.97
664.152	254.08
664.347	168.25
664.543	189.37
664.739	175.81
664.934	144.23
665.13	124.85
665.326	214.37
665.521	211.85
665.717	159.73
665.912	179.3
666.108	137.25
666.304	141.71
666.499	173.68
666.695	124.27
666.89	164.38
667.086	220.76
667.281	178.72
667.477	230.64
667.672	188.02
667.867	178.52
668.063	215.72
668.258	154.69
668.454	162.05
668.649	232
668.844	196.73
669.04	185.88
669.235	167.67
669.43	147.72
669.626	132.22
669.821	158.18
670.016	118.46
670.211	179.1
670.407	142.68
670.602	186.08
670.797	165.54
670.992	208.94
671.187	169.42
671.382	225.6
671.578	167.09
671.773	188.21
671.968	121.75
672.163	167.09
672.358	202.35
672.553	152.17
672.748	165.15
672.943	235.87
673.138	167.87
673.333	191.12
673.528	143.26
673.723	174.07
673.918	178.33
674.113	138.42
674.308	229.09
674.503	199.83
674.698	192.47
674.892	198.09
675.087	192.47
675.282	184.72
675.477	160.31
675.672	196.73
675.867	173.87
676.061	155.47
676.256	127.76
676.451	165.35
676.646	178.72
676.84	158.18
677.035	170.38
677.23	140.74
677.424	192.67
677.619	200.61
677.814	197.51
678.008	207.97
678.203	133.96
678.397	148.1
678.592	196.35
678.787	215.92
678.981	139.19
679.176	176.58
679.37	167.67
679.565	144.03
679.759	148.49
679.954	183.95
680.148	206.42
680.342	202.74
680.537	194.41
680.731	170
680.926	187.05
681.12	223.67
681.314	153.72
681.509	148.68
681.703	177.75
681.897	195.96
682.092	165.54
682.286	140.35
682.48	232
682.674	209.33
682.869	166.9
683.063	162.83
683.257	230.06
683.451	139.77
683.645	208.55
683.839	168.64
684.034	186.08
684.228	204.48
684.422	120.79
684.616	130.86
684.81	178.91
685.004	136.29
685.198	142.29
685.392	195.38
685.586	108.39
685.78	188.98
685.974	192.67
686.168	187.43
686.362	231.8
686.556	167.48
686.75	157.21
686.944	153.72
687.138	212.82
687.331	132.22
687.525	138.42
687.719	109.55
687.913	164.96
688.107	157.4
688.301	127.95
688.494	138.8
688.688	101.99
688.882	105.87
689.076	101.41
689.269	128.54
689.463	210.49
689.657	125.63
689.85	138.61
690.044	135.7
690.238	132.02
690.431	120.79
690.625	154.69
690.818	138.22
691.012	177.36
691.205	159.73
691.399	113.04
691.593	144.23
691.786	207.39
691.98	182.98
692.173	207
692.366	176.58
692.56	200.8
692.753	225.6
692.947	153.72
693.14	205.26
693.333	188.4
693.527	125.63
693.72	190.15
693.914	172.13
694.107	175.42
694.3	207.97
694.493	160.12
694.687	202.55
694.88	162.25
695.073	223.86
695.266	178.13
695.46	172.71
695.653	234.71
695.846	205.07
696.039	103.74
696.232	204.68
696.425	203.71
696.618	177.55
696.812	164.18
697.005	227.35
697.198	260.67
697.391	222.89
697.584	235.87
697.777	264.35
697.97	267.26
698.163	251.76
698.356	238.39
698.549	302.52
698.742	273.85
698.935	233.16
699.127	242.85
699.32	213.59
699.513	213.4
699.706	269.58
699.899	245.56
700.092	232.96
700.285	266.1
700.477	204.29
700.67	261.64
700.863	297.29
701.056	357.74
701.248	297.1
701.441	328.29
701.634	287.6
701.826	371.88
702.019	265.13
702.212	319.38
702.404	285.47
702.597	241.3
702.79	296.71
702.982	299.03
703.175	316.66
703.367	327.71
703.56	334.49
703.752	376.14
703.945	318.02
704.137	349.21
704.33	354.64
704.522	329.64
704.715	369.75
704.907	366.07
705.1	359.29
705.292	370.72
705.484	343.4
705.677	395.52
705.869	361.03
706.061	405.21
706.254	444.34
706.446	389.32
706.638	373.82
706.831	444.92
707.023	385.25
707.215	466.04
707.407	470.11
707.599	431.17
707.792	441.44
707.984	463.91
708.176	483.09
708.368	422.64
708.56	465.85
708.752	478.83
708.944	451.32
709.136	480.57
709.329	436.4
709.521	553.81
709.713	531.34
709.905	516.22
710.097	519.52
710.289	468.56
710.481	511.77
710.672	523
710.864	540.44
711.056	540.25
711.248	562.34
711.44	536.18
711.632	518.35
711.824	539.86
712.016	620.85
712.207	577.25
712.399	581.52
712.591	638.67
712.783	559.43
712.975	591.98
713.166	593.92
713.358	572.22
713.55	670.83
713.741	658.82
713.933	621.43
714.125	625.69
714.316	623.17
714.508	677.61
714.7	697.96
714.891	639.25
715.083	704.55
715.274	644.1
715.466	684.01
715.657	693.5
715.849	613.87
716.04	678.39
716.232	618.52
716.423	699.31
716.615	642.16
716.806	624.53
716.998	652.04
717.189	622.59
717.381	568.54
717.572	552.84
717.763	607.28
717.955	593.72
718.146	585.78
718.337	553.04
718.528	555.94
718.72	524.94
718.911	597.98
719.102	536.76
719.293	594.88
719.485	591.59
719.676	567.76
719.867	541.8
720.058	540.83
720.249	554.59
720.44	577.83
720.632	557.69
720.823	631.31
721.014	658.82
721.205	638.09
721.396	711.52
721.587	748.72
721.778	748.91
721.969	742.91
722.16	775.26
722.351	750.08
722.542	846.56
722.733	863.42
722.924	733.41
723.115	819.05
723.305	831.64
723.496	856.06
723.687	772.36
723.878	789.21
724.069	760.93
724.26	805.88
724.45	776.81
724.641	786.11
724.832	790.57
725.023	806.26
725.213	766.35
725.404	774.68
725.595	762.48
725.785	753.56
725.976	829.13
726.167	792.31
726.357	781.27
726.548	859.35
726.739	828.16
726.929	864.19
727.12	873.3
727.31	898.49
727.501	864.77
727.691	878.92
727.882	863.81
728.072	882.02
728.263	875.04
728.453	919.99
728.644	894.61
728.834	943.44
729.024	922.71
729.215	886.86
729.405	934.52
729.596	991.87
729.786	970.56
729.976	985.29
730.167	999.04
730.357	952.35
730.547	955.25
730.737	985.67
730.928	1025.39
731.118	1051.16
731.308	987.61
731.498	1000.98
731.688	1052.52
731.879	1054.84
732.069	1101.34
732.259	1092.43
732.449	1111.22
732.639	1148.42
732.829	1166.44
733.019	1187.75
733.209	1210.81
733.399	1198.02
733.589	1225.14
733.779	1244.33
733.969	1261.57
734.159	1260.02
734.349	1311.36
734.539	1323.18
734.729	1304.77
734.919	1341.2
735.109	1349.34
735.299	1327.25
735.488	1349.92
735.678	1379.37
735.868	1382.66
736.058	1365.22
736.248	1345.66
736.437	1303.03
736.627	1327.25
736.817	1398.94
737.007	1390.22
737.196	1410.95
737.386	1372.78
737.576	1395.45
737.765	1407.85
737.955	1376.46
738.144	1480.12
738.334	1425.48
738.524	1395.25
738.713	1451.44
738.903	1479.53
739.092	1470.04
739.282	1480.7
739.471	1486.7
739.661	1467.52
739.85	1481.47
740.04	1494.84
740.229	1498.91
740.419	1519.64
740.608	1557.03
740.797	1550.25
740.987	1584.55
741.176	1576.99
741.365	1538.24
741.555	1528.75
741.744	1598.11
741.933	1563.43
742.123	1558.2
742.312	1596.95
742.501	1610.9
742.69	1626.39
742.88	1543.28
743.069	1663.21
743.258	1615.35
743.447	1656.62
743.636	1643.06
743.825	1630.27
744.014	1644.8
744.204	1673.86
744.393	1649.84
744.582	1634.14
744.771	1679.87
744.96	1622.91
745.149	1676.77
745.338	1650.81
745.527	1668.83
745.716	1664.95
745.905	1640.34
746.094	1709.13
746.283	1704.48
746.471	1681.23
746.66	1721.72
746.849	1726.56
747.038	1736.83
747.227	1679.68
747.416	1688.39
747.604	1703.12
747.793	1669.6
747.982	1722.88
748.171	1722.11
748.359	1735.28
748.548	1701.57
748.737	1718.23
748.926	1689.17
749.114	1620.97
749.303	1716.1
749.491	1721.14
749.68	1652.74
749.869	1767.83
750.057	1677.35
750.246	1643.25
750.434	1690.91
750.623	1688.01
750.811	1677.16
751	1730.82
751.188	1691.49
751.377	1704.28
751.565	1691.11
751.754	1638.21
751.942	1659.14
752.131	1726.56
752.319	1640.93
752.507	1651.19
752.696	1699.83
752.884	1711.45
753.072	1717.65
753.261	1655.65
753.449	1650.03
753.637	1702.73
753.825	1757.56
754.014	1670.57
754.202	1681.23
754.39	1731.79
754.578	1710.09
754.766	1687.62
754.955	1677.54
755.143	1751.36
755.331	1671.54
755.519	1676.19
755.707	1684.91
755.895	1669.79
756.083	1674.44
756.271	1630.66
756.459	1692.85
756.647	1693.82
756.835	1662.24
757.023	1631.24
757.211	1631.43
757.399	1625.81
757.587	1639.96
757.775	1583.77
757.963	1637.05
758.151	1632.01
758.339	1616.71
758.526	1597.72
758.714	1617.29
758.902	1597.33
759.09	1562.26
759.278	1419.09
759.465	1340.04
759.653	1111.41
759.841	1032.37
760.028	871.94
760.216	757.24
760.404	774.49
760.591	568.54
760.779	494.72
760.967	461.2
761.154	328.48
761.342	377.69
761.529	366.46
761.717	419.74
761.905	381.18
762.092	432.33
762.28	378.28
762.467	440.08
762.655	354.25
762.842	385.44
763.029	383.12
763.217	385.25
763.404	361.61
763.592	411.02
763.779	351.15
763.966	412.57
764.154	436.59
764.341	451.71
764.528	465.46
764.716	483.09
764.903	512.74
765.09	575.9
765.277	568.15
765.465	667.54
765.652	681.3
765.839	704.55
766.026	794.25
766.213	802.78
766.4	856.64
766.588	989.94
766.775	936.65
766.962	1027.72
767.149	1032.17
767.336	1148.81
767.523	1067.63
767.71	1170.12
767.897	1245.29
768.084	1267.58
768.271	1271.64
768.458	1277.26
768.645	1309.42
768.832	1281.72
769.019	1350.11
769.206	1333.64
769.392	1380.34
769.579	1474.5
769.766	1425.48
769.953	1410.75
770.14	1469.65
770.327	1433.42
770.513	1471.78
770.7	1545.99
770.887	1444.66
771.073	1521
771.26	1475.47
771.447	1436.91
771.634	1485.93
771.82	1532.43
772.007	1475.85
772.193	1467.33
772.38	1529.72
772.567	1460.93
772.753	1471.98
772.94	1479.73
773.126	1531.27
773.313	1525.65
773.499	1538.05
773.686	1511.89
773.872	1483.6
774.059	1477.6
774.245	1446.21
774.432	1452.02
774.618	1437.3
774.804	1478.57
774.991	1421.6
775.177	1496
775.363	1463.84
775.55	1482.83
775.736	1430.71
775.922	1439.43
776.109	1465.97
776.295	1493.29
776.481	1476.24
776.667	1479.15
776.853	1442.14
777.04	1444.47
777.226	1443.11
777.412	1514.02
777.598	1423.74
777.784	1380.92
777.97	1448.92
778.156	1494.84
778.342	1423.74
778.528	1424.12
778.715	1360.38
778.901	1400.49
779.087	1394.67
779.272	1396.22
779.458	1407.27
779.644	1428.58
779.83	1373.75
780.016	1465.39
780.202	1407.46
780.388	1400.1
780.574	1370.84
780.76	1381.69
780.946	1425.09
781.131	1390.99
781.317	1362.32
781.503	1351.66
781.689	1387.7
781.874	1470.62
782.06	1372
782.246	1358.64
782.432	1329.19
782.617	1393.7
782.803	1410.75
782.989	1320.08
783.174	1359.61
783.36	1324.92
783.545	1354.76
783.731	1336.16
783.916	1323.57
784.102	1347.98
784.288	1281.14
784.473	1359.99
784.659	1315.43
784.844	1378.4
785.029	1293.92
785.215	1297.61
785.4	1261.57
785.586	1345.07
785.771	1257.11
785.956	1317.56
786.142	1295.47
786.327	1270.87
786.512	1297.22
786.698	1291.79
786.883	1261.76
787.068	1270.29
787.254	1251.49
787.439	1242
787.624	1290.44
787.809	1225.34
787.994	1258.28
788.18	1298.96
788.365	1190.27
788.55	1232.89
788.735	1231.34
788.92	1226.69
789.105	1218.36
789.29	1270.09
789.475	1236.19
789.66	1232.51
789.845	1192.01
790.03	1190.46
790.215	1223.59
790.4	1237.35
790.585	1255.95
790.77	1234.64
790.955	1123.43
791.14	1187.75
791.325	1229.02
791.51	1136.8
791.695	1169.73
791.879	1162.56
792.064	1136.02
792.249	1237.54
792.434	1141.64
792.618	1181.16
792.803	1190.08
792.988	1158.5
793.173	1183.88
793.357	1229.41
793.542	1136.6
793.727	1180.39
793.911	1239.29
794.096	1128.66
794.281	1190.66
794.465	1242.19
794.65	1179.03
794.834	1211
795.019	1249.56
795.203	1234.06
795.388	1213.71
795.572	1234.64
795.757	1182.71
795.941	1226.5
796.126	1229.79
796.31	1154.23
796.494	1204.22
796.679	1202.48
796.863	1159.46
797.048	1245.1
797.232	1223.98
797.416	1186.98
797.601	1197.83
797.785	1249.17
797.969	1245.49
798.153	1182.33
798.338	1195.11
798.522	1228.05
798.706	1211.97
798.89	1202.86
799.074	1304.97
799.258	1257.31
799.443	1216.62
799.627	1195.11
799.811	1256.34
799.995	1221.27
800.179	1235.8
800.363	1205.96
800.547	1216.81
800.731	1226.89
800.915	1191.24
801.099	1192.01
801.283	1209.84
801.467	1179.42
801.651	1224.37
801.835	1235.22
802.019	1228.63
802.202	1201.89
802.386	1178.84
802.57	1174
802.754	1170.7
802.938	1168.18
803.121	1186.98
803.305	1259.63
803.489	1192.4
803.673	1209.84
803.856	1228.44
804.04	1218.56
804.224	1210.81
804.407	1183.3
804.591	1184.26
804.775	1185.23
804.958	1202.28
805.142	1261.96
805.326	1193.37
805.509	1204.8
805.693	1233.09
805.876	1233.09
806.06	1211.58
806.243	1214.68
806.427	1264.09
806.61	1239.09
806.794	1212.94
806.977	1260.6
807.16	1191.63
807.344	1223.01
807.527	1214.88
807.71	1201.89
807.894	1229.21
808.077	1234.64
808.26	1167.99
808.444	1157.53
808.627	1223.01
808.81	1198.02
808.993	1163.92
809.177	1162.18
809.36	1179.03
809.543	1222.24
809.726	1120.33
809.909	1131.56
810.092	1097.08
810.276	1134.66
810.459	1149.97
810.642	1094.17
810.825	1093.59
811.008	1096.5
811.191	1035.08
811.374	1079.06
811.557	1063.56
811.74	1140.86
811.923	1020.93
812.106	1035.66
812.289	1017.64
812.472	1050
812.654	1065.11
812.837	1007.18
813.02	978.12
813.203	993.81
813.386	922.9
813.569	899.46
813.751	923.67
813.934	910.69
814.117	928.32
814.3	890.35
814.482	877.37
814.665	854.89
814.848	851.6
815.03	822.15
815.213	847.92
815.396	797.16
815.578	810.14
815.761	781.08
815.943	821.38
816.126	753.56
816.309	717.91
816.491	746.2
816.674	676.45
816.856	727.99
817.039	683.62
817.221	776.04
817.403	731.67
817.586	726.44
817.768	744.65
817.951	685.56
818.133	668.9
818.315	717.53
818.498	732.64
818.68	783.98
818.862	751.24
819.045	792.89
819.227	764.03
819.409	714.23
819.591	764.41
819.774	751.82
819.956	689.05
820.138	774.49
820.32	762.09
820.502	789.21
820.684	840.36
820.866	822.93
821.048	869.23
821.231	824.48
821.413	868.46
821.595	821.96
821.777	843.85
821.959	835.71
822.141	875.04
822.323	776.43
822.505	754.92
822.686	733.8
822.868	734.58
823.05	656.88
823.232	674.32
823.414	609.22
823.596	663.86
823.778	678.58
823.96	683.43
824.141	659.79
824.323	686.72
824.505	715.78
824.687	760.15
824.868	753.56
825.05	818.08
825.232	815.18
825.413	881.24
825.595	839.97
825.777	789.6
825.958	794.06
826.14	817.89
826.321	857.02
826.503	791.34
826.685	834.36
826.866	836.88
827.048	830.29
827.229	829.32
827.411	790.57
827.592	723.73
827.773	777.98
827.955	739.81
828.136	742.52
828.318	731.86
828.499	740.2
828.68	701.64
828.862	791.73
829.043	748.53
829.224	736.9
829.406	701.06
829.587	739.81
829.768	690.79
829.949	789.99
830.131	722.56
830.312	777.2
830.493	733.03
830.674	721.6
830.855	719.85
831.036	716.95
831.218	781.46
831.399	756.86
831.58	733.8
831.761	764.22
831.942	772.16
832.123	737.87
832.304	717.91
832.485	719.46
832.666	742.52
832.847	760.73
833.028	731.67
833.209	771
833.389	708.61
833.57	701.06
833.751	723.73
833.932	770.42
834.113	735.16
834.294	742.33
834.475	755.5
834.655	802.58
834.836	784.95
835.017	754.92
835.198	706.1
835.378	752.59
835.559	762.67
835.74	724.31
835.92	716.56
836.101	707.65
836.281	755.31
836.462	789.6
836.643	787.28
836.823	796.38
837.004	790.96
837.184	804.91
837.365	786.31
837.545	781.08
837.726	749.69
837.906	821.96
838.087	789.6
838.267	758.6
838.448	711.52
838.628	768.68
838.808	775.26
838.989	816.92
839.169	740
839.349	793.67
839.53	838.04
839.71	798.13
839.89	746.59
840.07	817.11
840.251	762.86
840.431	808.39
840.611	795.22
840.791	739.61
840.971	799.87
841.151	754.92
841.332	724.5
841.512	784.76
841.692	747.17
841.872	773.71
842.052	752.4
842.232	795.41
842.412	724.89
842.592	771
842.772	776.43
842.952	793.48
843.132	744.65
843.312	758.02
843.492	737.87
843.672	775.26
843.851	712.68
844.031	755.11
844.211	743.1
844.391	748.33
844.571	783.59
844.751	784.56
844.93	770.61
845.11	717.53
845.29	740.39
845.47	769.45
845.649	752.01
845.829	800.06
846.009	705.32
846.188	756.47
846.368	765.96
846.547	757.44
846.727	786.5
846.907	692.73
847.086	738.84
847.266	756.86
847.445	746.4
847.625	736.13
847.804	732.25
847.984	716.56
848.163	734.19
848.343	711.33
848.522	756.47
848.701	732.64
848.881	727.41
849.06	712.68
849.239	742.71
849.419	718.3
849.598	707.06
849.777	701.25
849.957	685.95
850.136	675.1
850.315	637.32
850.494	672.77
850.674	645.65
850.853	710.16
851.032	706.29
851.211	744.46
851.39	710.75
851.569	655.92
851.748	643.32
851.927	691.18
852.107	676.06
852.286	657.08
852.465	630.34
852.644	698.93
852.823	700.67
853.002	691.56
853.181	664.05
853.359	694.47
853.538	630.92
853.717	736.9
853.896	636.73
854.075	617.36
854.254	583.84
854.433	571.83
854.611	620.27
854.79	551.68
854.969	637.12
855.148	613.68
855.327	611.16
855.505	620.65
855.684	592.75
855.863	598.37
856.041	617.17
856.22	640.61
856.399	559.43
856.577	679.16
856.756	656.88
856.934	734.96
857.113	731.48
857.291	667.15
857.47	628.98
857.648	638.48
857.827	672.19
858.005	675.68
858.184	597.79
858.362	694.86
858.541	634.02
858.719	637.7
858.898	636.73
859.076	643.13
859.254	692.15
859.433	620.46
859.611	614.45
859.789	607.09
859.967	670.64
860.146	681.68
860.324	609.22
860.502	618.33
860.68	587.72
860.859	627.63
861.037	616
861.215	630.15
861.393	616.58
861.571	623.75
861.749	582.29
861.927	655.72
862.105	643.52
862.283	594.5
862.461	601.08
862.639	586.55
862.817	595.47
862.995	622.78
863.173	619.3
863.351	619.49
863.529	625.69
863.707	666.18
863.885	635.57
864.063	526.3
864.241	567.37
864.418	652.82
864.596	579.77
864.774	555.75
864.952	611.35
865.129	629.37
865.307	581.71
865.485	511.77
865.663	618.91
865.84	540.83
866.018	585.78
866.196	454.61
866.373	536.95
866.551	502.47
866.728	456.16
866.906	503.24
867.084	541.8
867.261	550.13
867.439	558.85
867.616	543.15
867.794	568.92
867.971	561.56
868.149	543.93
868.326	585.2
868.503	562.53
868.681	549.74
868.858	526.1
869.035	541.6
869.213	572.99
869.39	545.87
869.567	587.33
869.745	538.7
869.922	541.6
870.099	558.65
870.276	565.24
870.454	564.85
870.631	564.47
870.808	548.58
870.985	585.97
871.162	593.33
871.339	592.56
871.517	502.66
871.694	515.06
871.871	554.39
872.048	561.75
872.225	517.19
872.402	573.96
872.579	497.82
872.756	553.04
872.933	487.74
873.11	497.04
873.287	550.9
873.463	535.79
873.64	515.45
873.817	546.25
873.994	537.34
874.171	508.86
874.348	531.53
874.524	474.57
874.701	512.93
874.878	478.25
875.055	537.15
875.231	526.3
875.408	521.45
875.585	476.12
875.762	535.99
875.938	520.1
876.115	516.22
876.291	499.17
876.468	494.72
876.645	488.71
876.821	520.87
876.998	528.04
877.174	511.57
877.351	495.49
877.527	486
877.704	485.03
877.88	499.37
878.057	482.71
878.233	543.93
878.409	480.38
878.586	508.47
878.762	501.11
878.938	453.84
879.115	453.06
879.291	485.61
879.467	442.99
879.644	468.37
879.82	475.92
879.996	422.84
880.172	415.67
880.349	444.54
880.525	504.4
880.701	413.34
880.877	434.66
881.053	470.69
881.229	469.72
881.405	496.07
881.581	422.84
881.757	450.54
881.933	480.19
882.109	519.9
882.285	456.74
882.461	442.99
882.637	441.82
882.813	429.04
882.989	462.56
883.165	498.59
883.341	428.46
883.517	487.94
883.693	485.81
883.869	471.86
884.044	435.82
884.22	452.48
884.396	519.71
884.572	469.92
884.747	484.06
884.923	466.04
885.099	474.76
885.275	482.12
885.45	413.92
885.626	465.07
885.801	457.13
885.977	438.34
886.153	392.03
886.328	462.94
886.504	444.92
886.679	480.96
886.855	471.66
887.03	461.2
887.206	494.91
887.381	476.7
887.557	486.19
887.732	467.21
887.908	475.54
888.083	457.13
888.258	444.15
888.434	447.44
888.609	467.79
888.784	501.5
888.96	445.31
889.135	415.67
889.31	409.66
889.485	450.54
889.661	441.82
889.836	498.98
890.011	475.15
890.186	452.87
890.361	416.06
890.537	479.8
890.712	483.67
890.887	475.73
891.062	476.12
891.237	505.18
891.412	433.69
891.587	460.42
891.762	465.66
891.937	470.31
892.112	403.46
892.287	453.45
892.462	419.35
892.637	394.74
892.812	382.15
892.987	429.42
893.161	400.17
893.336	387.96
893.511	406.95
893.686	415.47
893.861	418.96
894.035	389.13
894.21	412.96
894.385	379.24
894.56	389.9
894.734	390.48
894.909	371.69
895.084	380.6
895.258	390.68
895.433	369.75
895.608	348.63
895.782	332.94
895.957	328.48
896.131	372.08
896.306	294.58
896.48	322.86
896.655	340.49
896.829	274.62
897.004	283.53
897.178	311.43
897.353	281.98
897.527	314.34
897.701	315.69
897.876	264.16
898.05	326.35
898.224	319.38
898.399	349.79
898.573	309.5
898.747	248.46
898.921	287.8
899.096	220.57
899.27	216.11
899.444	234.13
899.618	250.21
899.792	258.15
899.967	248.08
900.141	311.82
900.315	196.93
900.489	269.78
900.663	265.51
900.837	272.49
901.011	230.45
901.185	323.83
901.359	268.61
901.533	302.91
901.707	255.63
901.881	263
902.055	227.15
902.229	261.83
902.403	316.66
902.576	285.86
902.75	267.65
902.924	375.95
903.098	285.66
903.272	324.41
903.446	327.13
903.619	299.23
903.793	334.29
903.967	309.88
904.14	357.93
904.314	352.51
904.488	323.64
904.661	353.28
904.835	327.51
905.009	368.2
905.182	392.03
905.356	358.71
905.529	353.67
905.703	298.45
905.876	311.63
906.05	297.1
906.223	302.71
906.397	272.1
906.57	277.72
906.744	259.51
906.917	247.69
907.09	236.06
907.264	271.13
907.437	235.48
907.61	242.65
907.784	241.1
907.957	257.38
908.13	218.05
908.304	279.85
908.477	223.47
908.65	238.39
908.823	202.55
908.996	269.58
909.17	243.04
909.343	232.58
909.516	213.98
909.689	254.28
909.862	212.62
910.035	241.3
910.208	199.45
910.381	218.05
910.554	310.08
910.727	229.28
910.9	230.25
911.073	207.2
911.246	249.24
911.419	284.31
911.592	255.05
911.765	205.45
911.938	203.13
912.11	226.57
912.283	232.58
912.456	288.38
912.629	254.28
912.802	214.17
912.974	169.61
913.147	222.5
913.32	157.79
913.493	164.18
913.665	200.42
913.838	221.73
914.01	188.79
914.183	202.93
914.356	186.08
914.528	194.41
914.701	257.38
914.873	227.54
915.046	195.38
915.218	189.95
915.391	138.42
915.563	167.28
915.736	222.12
915.908	222.5
916.081	197.9
916.253	168.06
916.425	191.12
916.598	202.35
916.77	198.87
916.942	155.66
917.115	124.85
917.287	215.33
917.459	157.6
917.632	150.23
917.804	144.62
917.976	202.35
918.148	191.7
918.32	163.22
918.493	187.24
918.665	228.12
918.837	172.52
919.009	240.13
919.181	235.1
919.353	208.17
919.525	210.3
919.697	219.98
919.869	176.97
920.041	224.44
920.213	269.58
920.385	216.3
920.557	199.64
920.729	227.15
920.901	227.35
921.073	217.47
921.244	194.41
921.416	248.46
921.588	212.82
921.76	172.9
921.932	285.47
922.103	188.98
922.275	190.53
922.447	225.8
922.619	149.07
922.79	221.34
922.962	156.82
923.134	206.03
923.305	181.23
923.477	148.68
923.648	180.27
923.82	183.37
923.991	138.61
924.163	143.45
924.335	171.16
924.506	160.5
924.677	193.44
924.849	161.47
925.02	179.88
925.192	183.37
925.363	160.7
925.535	199.25
925.706	175.62
925.877	207
926.049	157.4
926.22	178.52
926.391	170
926.562	199.64
926.734	128.15
926.905	188.98
927.076	147.33
927.247	162.25
927.419	129.5
927.59	168.25
927.761	162.25
927.932	147.91
928.103	178.33
928.274	121.37
928.445	127.76
928.616	138.61
928.787	133.96
928.958	180.46
929.129	144.42
929.3	128.15
929.471	92.11
929.642	44.64
929.813	44.45
929.984	145
930.155	55.88
930.326	94.05
930.496	79.71
930.667	28.95
930.838	80.87
931.009	57.24
931.18	34.96
931.35	63.44
931.521	66.54
931.692	24.11
931.863	4.54
932.033	62.08
932.204	62.27
932.374	74.87
932.545	34.18
932.716	75.06
932.886	87.07
933.057	27.4
933.227	51.04
933.398	117.1
933.568	6.86
933.739	-18.13
933.909	5.31
934.08	54.14
934.25	-1.86
934.421	8.99
934.591	42.51
934.761	14.22
934.932	-19.68
935.102	25.85
935.272	24.69
935.443	14.61
935.613	6.86
935.783	22.17
935.953	-12.71
936.123	127.57
936.294	-17.55
936.464	8.8
936.634	1.24
936.804	-21.62
936.974	-16
937.144	53.55
937.314	18.1
937.484	31.86
937.655	-6.12
937.825	35.92
937.995	6.09
938.165	55.49
938.334	-7.48
938.504	11.32
938.674	-8.64
938.844	-5.15
939.014	40.19
939.184	47.36
939.354	87.85
939.524	29.53
939.694	45.42
939.863	12.09
940.033	48.13
940.203	87.27
940.373	70.02
940.542	60.14
940.712	21.59
940.882	52.97
941.051	86.1
941.221	52.39
941.391	72.35
941.56	32.05
941.73	31.86
941.899	106.45
942.069	11.9
942.238	83.39
942.408	26.82
942.577	37.86
942.747	17.13
942.916	34.57
943.086	3.76
943.255	57.04
943.425	48.71
943.594	23.33
943.763	-10.96
943.933	-0.5
944.102	-37.51
944.271	39.41
944.441	42.32
944.61	26.24
944.779	7.25
944.948	92.69
945.117	-12.13
945.287	12.87
945.456	-25.3
945.625	11.9
945.794	24.69
945.963	9.19
946.132	50.84
946.301	-4.38
946.47	41.74
946.639	6.86
946.808	-9.8
946.977	41.74
947.146	72.93
947.315	21.78
947.484	62.08
947.653	24.3
947.822	-1.66
947.991	11.51
948.16	75.64
948.329	69.83
948.498	-10.19
948.666	39.8
948.835	51.42
949.004	-27.04
949.173	8.61
949.341	49.87
949.51	42.71
949.679	78.55
949.847	58.98
950.016	121.56
950.185	85.52
950.353	18.29
950.522	7.64
950.69	49.87
950.859	-1.08
951.028	69.44
951.196	39.22
951.365	16.74
951.533	4.73
951.701	79.13
951.87	53.17
952.038	4.34
952.207	33.21
952.375	90.75
952.543	39.22
952.712	25.27
952.88	14.81
953.048	74.29
953.217	25.85
953.385	6.28
953.553	57.82
953.721	2.02
953.89	44.84
954.058	-0.11
954.226	1.82
954.394	40.57
954.562	-7.09
954.73	33.41
954.898	31.08
955.067	53.75
955.235	25.85
955.403	61.5
955.571	97.92
955.739	20.81
955.907	19.46
956.075	2.21
956.243	-1.28
956.41	27.98
956.578	-4.76
956.746	6.67
956.914	15.58
957.082	30.11
957.25	59.37
957.418	-2.63
957.585	19.07
957.753	58.59
957.921	11.71
958.089	40.57
958.256	28.95
958.424	32.63
958.592	42.71
958.759	12.67
958.927	48.52
959.095	1.63
959.262	46.39
959.43	36.31
959.597	-18.52
959.765	39.41
959.932	-15.23
960.1	33.99
960.267	19.26
960.435	16.74
960.602	45.22
960.77	29.34
960.937	-0.11
961.104	9.57
961.272	-1.86
961.439	37.86
961.606	40.57
961.774	67.89
961.941	17.13
962.108	26.62
962.275	64.4
962.443	50.26
962.61	57.24
962.777	93.27
962.944	49.49
963.111	34.57
963.278	42.12
963.446	24.3
963.613	33.21
963.78	51.62
963.947	54.52
964.114	42.71
964.281	104.51
964.448	35.15
964.615	18.68
964.782	30.89
964.949	83.78
965.116	58.79
965.282	91.72
965.449	34.76
965.616	17.13
965.783	73.51
965.95	46.77
966.117	12.09
966.283	52.97
966.45	49.29
966.617	38.64
966.784	61.69
966.95	55.69
967.117	77.39
967.284	18.68
967.45	29.14
967.617	58.4
967.784	81.07
967.95	116.33
968.117	36.7
968.283	87.07
968.45	133.96
968.616	48.13
968.783	54.72
968.949	40.19
969.116	69.83
969.282	32.63
969.449	65.76
969.615	46.77
969.781	-5.54
969.948	44.06
970.114	10.16
970.28	77.19
970.447	40.77
970.613	99.28
970.779	31.66
970.945	48.32
971.112	45.42
971.278	39.02
971.444	37.86
971.61	56.07
971.776	16.55
971.942	66.73
972.108	75.64
972.275	67.89
972.441	66.34
972.607	90.95
972.773	33.21
972.939	56.85
973.105	33.99
973.271	8.99
973.437	34.18
973.602	1.05
973.768	50.07
973.934	46.97
974.1	44.26
974.266	-24.14
974.432	53.55
974.598	27.21
974.763	63.44
974.929	35.54
975.095	119.62
975.261	1.24
975.426	21.59
975.592	60.53
975.758	119.43
975.923	2.02
976.089	27.01
976.255	94.24
976.42	54.72
976.586	66.34
976.751	72.74
976.917	114
977.082	74.87
977.248	-8.64
977.413	-0.5
977.579	34.76
977.744	67.5
977.91	-6.89
978.075	25.85
978.24	72.35
978.406	51.81
978.571	15.97
978.736	14.81
978.902	102.38
979.067	9.57
979.232	-14.64
979.397	36.7
979.563	72.93
979.728	16.74
979.893	37.86
980.058	18.87
980.223	90.75
980.388	58.2
980.554	31.27
980.719	9.96
980.884	32.44
981.049	75.25
981.214	55.1
981.379	34.96
981.544	19.07
981.709	15.77
981.874	11.71
982.039	31.08
982.204	65.95
982.368	43.87
982.533	-0.31
982.698	81.45
982.863	77.77
983.028	37.67
983.193	88.82
983.357	46
983.522	31.66
983.687	36.12
983.852	21.2
984.016	26.04
984.181	66.15
984.346	47.74
984.51	51.23
984.675	51.62
984.839	52
985.004	41.54
985.168	75.45
985.333	29.53
985.498	26.62
985.662	53.36
985.827	62.47
985.991	15.39
986.155	37.86
986.32	92.11
986.484	91.92
986.649	61.5
986.813	-7.48
986.977	32.05
987.142	52
987.306	13.84
987.47	14.22
987.634	43.09
987.799	53.55
987.963	86.49
988.127	71.57
988.291	86.49
988.455	40.57
988.62	33.6
988.784	72.93
988.948	38.25
989.112	27.21
989.276	65.37
989.44	57.62
989.604	27.4
989.768	34.37
989.932	110.52
990.096	16.74
990.26	15.39
990.424	-5.93
990.588	23.33
990.752	100.05
990.915	59.95
991.079	33.6
991.243	3.37
991.407	66.73
991.571	8.99
991.734	55.49
991.898	58.79
992.062	124.85
992.226	25.85
992.389	51.04
992.553	21.59
992.717	6.28
992.88	29.53
993.044	39.02
993.207	40.38
993.371	53.75
993.535	43.87
993.698	24.11
993.862	67.7
994.025	53.94
994.189	55.69
994.352	43.87
994.515	55.3
994.679	70.6
994.842	53.94
995.006	48.91
995.169	17.52
995.332	34.96
995.496	57.43
995.659	-5.93
995.822	37.28
995.985	33.21
996.149	91.92
996.312	12.87
996.475	111.29
996.638	1.44
996.801	85.52
996.964	112.07
997.128	47.74
997.291	16.55
997.454	27.4
997.617	-22.2
997.78	74.48
997.943	-6.89
998.106	79.9
998.269	36.51
998.432	30.5
998.595	15.58
998.758	-12.13
998.92	-16.39
999.083	3.76
999.246	31.86
999.409	-22.59
999.572	-22.78
999.735	30.31
999.897	35.15
1000.06	15.97
1000.223	-0.31
1000.386	50.46
1000.548	72.35
1000.711	19.46
1000.874	56.07
1001.036	-8.06
1001.199	63.24
1001.361	12.09
1001.524	45.42
1001.687	59.37
1001.849	-6.7
1002.012	46.97
1002.174	29.34
1002.337	36.12
1002.499	1.05
1002.661	70.22
1002.824	-1.08
1002.986	15.77
1003.149	46.97
1003.311	21.2
1003.473	94.82
1003.636	40.19
1003.798	40.19
1003.96	57.04
1004.123	58.98
1004.285	-4.76
1004.447	30.69
1004.609	24.49
1004.771	70.02
1004.933	-23.94
1005.096	-21.81
1005.258	-24.91
1005.42	16.36
1005.582	54.52
1005.744	23.33
1005.906	-22.78
1006.068	13.26
1006.23	-22.39
1006.392	-42.74
1006.554	30.5
1006.716	61.5
1006.878	52
1007.04	-4.76
1007.202	-0.31
1007.363	44.06
1007.525	29.14
1007.687	57.43
1007.849	67.31
1008.011	-7.86
1008.172	-26.46
1008.334	19.26
1008.496	67.7
1008.658	-14.64
1008.819	-4.76
1008.981	-26.08
1009.143	25.46
1009.304	0.47
1009.466	25.07
1009.627	70.6
1009.789	111.49
1009.95	59.37
1010.112	16.74
1010.273	10.16
1010.435	22.56
1010.596	28.56
1010.758	-4.96
1010.919	7.83
1011.081	2.02
1011.242	37.86
1011.403	56.07
1011.565	-9.61
1011.726	37.28
1011.887	6.09
1012.049	9.57
1012.21	30.69
1012.371	64.21
1012.532	-37.31
1012.693	14.03
1012.855	6.28
1013.016	17.71
1013.177	45.42
1013.338	27.59
1013.499	65.18
1013.66	28.56
1013.821	56.27
1013.982	15.39
1014.143	39.61
1014.304	4.15
1014.465	47.94
1014.626	42.71
1014.787	33.79
1014.948	84.17
1015.109	-39.64
1015.27	57.43
1015.431	25.46
1015.592	12.48
1015.752	35.54
1015.913	29.72
1016.074	37.86
1016.235	-1.28
1016.395	9.38
1016.556	20.42
1016.717	16.55
1016.877	64.6
1017.038	-15.81
1017.199	24.11
1017.359	42.12
1017.52	28.37
1017.681	8.22
1017.841	7.06
1018.002	11.51
1018.162	-9.8
1018.323	54.72
1018.483	5.51
1018.644	-2.63
1018.804	-16.78
1018.964	-0.69
1019.125	-19.68
1019.285	28.37
1019.446	-10.58
1019.606	-18.91
1019.766	-15.61
1019.926	29.14
1020.087	58.4
1020.247	-21.43
1020.407	33.79
1020.567	41.93
1020.728	-9.61
1020.888	-25.69
1021.048	-35.38
1021.208	-20.26
1021.368	13.26
1021.528	73.32
1021.688	27.98
1021.848	47.16
1022.008	30.69
1022.168	26.04
1022.328	3.18
1022.488	19.65
1022.648	13.45
1022.808	6.67
1022.968	28.76
1023.128	-35.38
1023.288	-2.63
1023.448	21.39
1023.608	28.37
1023.767	39.8
1023.927	-7.86
1024.087	-25.11
1024.247	-28.21
1024.406	-7.28
1024.566	-21.23
1024.726	-12.32
1024.885	24.49
1025.045	48.52
1025.205	5.51
1025.364	28.76
1025.524	4.92
1025.683	-5.93
1025.843	2.41
1026.003	24.49
1026.162	55.1
1026.321	32.44
1026.481	19.84
1026.64	-19.88
1026.8	23.14
1026.959	15.77
1027.119	24.88
1027.278	4.34
1027.437	-6.12
1027.597	21.59
1027.756	46.19
1027.915	24.49
1028.074	41.35
1028.234	15.77
1028.393	31.27
1028.552	-1.28
1028.711	-40.8
1028.87	61.11
1029.03	-20.07
1029.189	-1.08
1029.348	-22.98
1029.507	-6.12
1029.666	22.94
1029.825	-40.22
1029.984	-6.31
1030.143	3.96
1030.302	-12.9
1030.461	-39.06
1030.62	0.08
1030.779	45.03
1030.938	-31.31
1031.097	-16.19
1031.255	28.56
1031.414	35.54
1031.573	41.35
1031.732	-32.47
1031.891	-11.54
1032.049	30.89
1032.208	60.34
1032.367	1.82
1032.525	-15.42
1032.684	-20.46
1032.843	27.4
1033.001	-44.29
1033.16	159.53
1033.319	48.91
1033.477	24.49
1033.636	-5.93
1033.794	-37.12
1033.953	46.97
1034.111	58.4
1034.27	-9.61
1034.428	12.67
1034.587	-29.95
1034.745	2.41
1034.903	9.77
1035.062	24.49
1035.22	-16.97
1035.378	45.03
1035.537	-27.63
1035.695	23.72
1035.853	-13.87
1036.011	44.26
1036.17	36.51
1036.328	-35.38
1036.486	23.72
1036.644	-4.96
1036.802	-77.81
1036.96	-18.52
1037.119	-0.11
1037.277	-0.89
1037.435	-38.47
1037.593	-18.33
1037.751	0.66
1037.909	32.63
1038.067	32.63
