Data from oakcork_FLMT105791__30__17-27-05-066.txt Node

Date: Mon Mar 20 17:27:05 GMT 2023
User: antho
Spectrometer: FLMT10579
Trigger mode: 0
Integration Time (sec): 1.000000E-1
Scans to average: 10
Electric dark correction enabled: true
Nonlinearity correction enabled: false
Boxcar width: 0
XAxis mode: Wavelengths
Number of Pixels in Spectrum: 3648
>>>>>Begin Spectral Data<<<<<
345.248	-163.49
345.464	-163.49
345.681	-163.49
345.898	-158.07
346.114	-165.23
346.331	-46.85
346.548	23.09
346.764	9.33
346.981	0.81
347.197	-18.76
347.414	13.21
347.631	-5.01
347.847	50.02
348.064	4.88
348.28	33.94
348.497	-37.36
348.713	-27.29
348.93	39.36
349.146	38.01
349.363	21.34
349.579	22.89
349.796	-0.55
350.012	0.03
350.229	52.15
350.445	28.71
350.661	-12.95
350.878	20.57
351.094	22.51
351.311	34.71
351.527	23.48
351.743	-12.76
351.96	61.64
352.176	48.47
352.392	31.03
352.609	14.56
352.825	-18.76
353.041	2.94
353.257	-2.49
353.474	25.99
353.69	27.54
353.906	13.79
354.122	-5.59
354.339	55.25
354.555	24.25
354.771	7.01
354.987	69.59
355.203	64.16
355.42	-9.07
355.636	6.04
355.852	15.53
356.068	24.06
356.284	-35.04
356.5	84.12
356.716	34.71
356.932	18.05
357.148	71.33
357.364	9.53
357.58	29.29
357.796	67.26
358.012	56.61
358.228	43.24
358.444	-31.55
358.66	36.84
358.876	47.89
359.092	-0.16
359.308	3.13
359.524	42.08
359.74	20.57
359.956	-7.72
360.172	21.54
360.388	62.03
360.604	-2.49
360.819	84.31
361.035	42.27
361.251	29.87
361.467	-10.62
361.683	82.96
361.898	38.01
362.114	55.06
362.33	39.94
362.546	36.26
362.762	11.08
362.977	31.03
363.193	7.39
363.409	39.17
363.624	-9.27
363.84	10.11
364.056	-6.94
364.271	28.32
364.487	37.43
364.703	-0.36
364.918	-10.43
365.134	17.86
365.35	25.8
365.565	106.98
365.781	34.91
365.996	31.61
366.212	81.02
366.427	24.44
366.643	-1.52
366.858	-2.87
367.074	-0.74
367.289	52.15
367.505	121.51
367.72	1.97
367.936	18.05
368.151	39.75
368.367	41.88
368.582	37.62
368.798	22.12
369.013	87.99
369.228	56.41
369.444	25.99
369.659	61.64
369.874	36.26
370.09	94
370.305	-22.83
370.52	15.14
370.736	85.67
370.951	20.57
371.166	73.66
371.381	81.21
371.597	61.06
371.812	8.94
372.027	8.36
372.242	20.96
372.458	99.23
372.673	30.64
372.888	37.23
373.103	62.81
373.318	114.54
373.533	38.2
373.749	31.03
373.964	-0.94
374.179	115.89
374.394	-5.78
374.609	74.04
374.824	-7.91
375.039	67.07
375.254	11.85
375.469	92.45
375.684	45.37
375.899	77.53
376.114	49.83
376.329	34.71
376.544	79.47
376.759	48.86
376.974	3.71
377.189	23.28
377.404	27.35
377.619	75.98
377.834	-12.37
378.049	-0.16
378.264	-3.65
378.478	43.04
378.693	12.43
378.908	38.2
379.123	13.59
379.338	76.95
379.553	63
379.767	41.11
379.982	58.74
380.197	64.74
380.412	35.29
380.626	45.95
380.841	96.52
381.056	44.4
381.271	105.04
381.485	23.48
381.7	5.07
381.915	45.37
382.129	36.26
382.344	52.54
382.559	56.61
382.773	62.03
382.988	-3.26
383.202	32.58
383.417	18.83
383.632	134.11
383.846	48.08
384.061	46.34
384.275	34.52
384.49	52.73
384.704	93.03
384.919	58.74
385.133	32.58
385.348	75.21
385.562	-4.62
385.777	67.65
385.991	25.41
386.206	25.03
386.42	47.11
386.634	87.99
386.849	55.44
387.063	61.84
387.277	11.27
387.492	18.05
387.706	4.29
387.92	17.47
388.135	88.57
388.349	42.46
388.563	32.97
388.778	81.02
388.992	67.84
389.206	67.07
389.42	140.11
389.635	38.98
389.849	67.07
390.063	101.94
390.277	71.91
390.491	104.46
390.706	92.84
390.92	76.17
391.134	71.72
391.348	71.53
391.562	17.66
391.776	22.51
391.99	25.99
392.205	70.75
392.419	55.64
392.633	50.02
392.847	98.46
393.061	34.33
393.275	112.02
393.489	41.3
393.703	63
393.917	73.66
394.131	34.33
394.345	71.14
394.559	59.32
394.773	29.68
394.986	75.21
395.2	32.39
395.414	83.92
395.628	61.64
395.842	74.24
396.056	60.87
396.27	8.56
396.484	81.79
396.697	52.15
396.911	87.22
397.125	68.43
397.339	99.23
397.553	76.17
397.766	110.08
397.98	94.97
398.194	86.64
398.408	61.64
398.621	117.06
398.835	117.83
399.049	73.66
399.262	145.73
399.476	121.32
399.69	127.32
399.903	169.95
400.117	88.77
400.331	126.36
400.544	59.32
400.758	189.32
400.971	91.87
401.185	130.81
401.398	88.96
401.612	154.64
401.826	112.6
402.039	119.96
402.253	86.25
402.466	121.12
402.68	67.46
402.893	95.36
403.106	108.53
403.32	101.94
403.533	111.44
403.747	86.44
403.96	113.57
404.174	139.14
404.387	40.14
404.6	90.51
404.814	143.41
405.027	105.24
405.24	97.49
405.454	106.4
405.667	139.14
405.88	51.38
406.094	137.59
406.307	135.66
406.52	127.52
406.733	68.62
406.947	65.33
407.16	147.67
407.373	142.05
407.586	87.02
407.799	67.65
408.012	120.16
408.226	105.24
408.439	161.62
408.652	62.03
408.865	146.7
409.078	128.49
409.291	116.86
409.504	76.37
409.717	143.02
409.93	118.99
410.143	143.99
410.357	80.44
410.57	105.04
410.783	100.97
410.996	129.84
411.209	130.81
411.421	168.98
411.634	119.19
411.847	79.47
412.06	115.7
412.273	127.91
412.486	127.32
412.699	200.56
412.912	132.94
413.125	166.46
413.338	125.58
413.55	148.44
413.763	116.09
413.976	140.11
414.189	95.55
414.402	118.02
414.615	194.36
414.827	108.34
415.04	147.47
415.253	144.57
415.466	161.23
415.678	188.94
415.891	148.25
416.104	140.5
416.316	116.47
416.529	108.72
416.742	152.12
416.954	177.31
417.167	154.45
417.38	113.18
417.592	176.34
417.805	120.54
418.017	86.25
418.23	168.2
418.442	99.23
418.655	146.31
418.868	154.45
419.08	180.6
419.293	184.48
419.505	137.59
419.718	141.86
419.93	174.21
420.142	134.3
420.355	179.83
420.567	149.02
420.78	159.87
420.992	141.47
421.205	202.69
421.417	130.62
421.629	136.04
421.842	122.87
422.054	82.76
422.266	185.45
422.479	176.15
422.691	125.77
422.903	179.44
423.115	123.26
423.328	131.39
423.54	166.85
423.752	154.64
423.964	131.2
424.177	158.32
424.389	144.57
424.601	252.87
424.813	157.16
425.025	179.83
425.238	174.79
425.45	130.62
425.662	144.57
425.874	423.37
426.086	171.5
426.298	168.59
426.51	189.13
426.722	161.42
426.934	135.07
427.146	176.15
427.358	135.27
427.57	198.62
427.782	145.54
427.994	151.74
428.206	129.26
428.418	135.66
428.63	186.61
428.842	210.05
429.054	177.12
429.266	184.87
429.478	139.14
429.69	167.04
429.902	105.24
430.114	184.67
430.325	184.48
430.537	116.47
430.749	143.99
430.961	84.51
431.173	150.57
431.384	165.49
431.596	102.14
431.808	135.07
432.02	163.36
432.231	215.87
432.443	206.95
432.655	189.32
432.867	133.33
433.078	190.49
433.29	237.18
433.502	188.16
433.713	236.4
433.925	200.95
434.136	241.83
434.348	149.22
434.56	139.34
434.771	290.85
434.983	139.53
435.194	149.99
435.406	165.1
435.617	226.33
435.829	286.78
436.04	228.46
436.252	217.22
436.463	278.64
436.675	261.78
436.886	209.47
437.098	250.16
437.309	258.1
437.521	211.99
437.732	229.24
437.943	223.04
438.155	214.51
438.366	178.09
438.578	267.6
438.789	223.81
439	211.6
439.211	208.12
439.423	233.5
439.634	248.8
439.845	253.26
440.057	215.29
440.268	259.27
440.479	197.27
440.69	252.48
440.902	222.65
441.113	236.79
441.324	209.28
441.535	246.48
441.746	291.23
441.957	205.99
442.168	225.36
442.38	260.82
442.591	260.23
442.802	222.26
443.013	201.14
443.224	234.85
443.435	262.75
443.646	247.83
443.857	243.57
444.068	225.94
444.279	237.57
444.49	327.66
444.701	249.58
444.912	380.16
445.123	282.32
445.334	283.29
445.545	278.45
445.756	237.95
445.967	230.01
446.178	295.88
446.388	301.7
446.599	300.53
446.81	288.52
447.021	244.35
447.232	296.85
447.443	303.83
447.653	279.42
447.864	327.66
448.075	280
448.286	305.18
448.496	300.53
448.707	331.34
448.918	267.6
449.129	356.14
449.339	255.78
449.55	313.9
449.761	285.23
449.971	339.48
450.182	281.93
450.393	297.05
450.603	278.45
450.814	342.19
451.024	314.87
451.235	328.63
451.446	379.39
451.656	341.8
451.867	297.82
452.077	323.78
452.288	346.26
452.498	343.93
452.709	307.9
452.919	300.15
453.13	274.77
453.34	321.85
453.55	237.57
453.761	323.01
453.971	316.23
454.182	337.73
454.392	308.87
454.602	382.49
454.813	340.45
455.023	344.32
455.233	289.3
455.444	312.93
455.654	279.42
455.864	310.22
456.075	308.09
456.285	264.88
456.495	311
456.705	343.55
456.916	359.82
457.126	377.06
457.336	325.14
457.546	267.79
457.756	311
457.967	341.03
458.177	319.13
458.387	327.66
458.597	281.93
458.807	321.46
459.017	317.58
459.227	332.89
459.437	310.03
459.647	386.95
459.857	366.41
460.068	292.59
460.278	376.1
460.488	334.05
460.698	365.25
460.908	349.36
461.117	280.19
461.327	320.68
461.537	335.6
461.747	348.58
461.957	349.75
462.167	452.04
462.377	375.71
462.587	362.73
462.797	381.13
463.007	363.89
463.216	361.37
463.426	380.94
463.636	388.3
463.846	298.21
464.056	336.57
464.265	394.89
464.475	327.66
464.685	353.04
464.895	398.38
465.104	373
465.314	383.07
465.524	365.44
465.733	318.17
465.943	418.14
466.153	409.42
466.362	394.7
466.572	384.43
466.782	358.66
466.991	372.41
467.201	406.32
467.41	315.07
467.62	383.85
467.829	367.18
468.039	397.02
468.249	387.53
468.458	388.3
468.668	397.8
468.877	398.76
469.086	443.71
469.296	422.21
469.505	393.73
469.715	485.95
469.924	407.1
470.134	435.19
470.343	428.79
470.552	400.12
470.762	383.85
470.971	361.76
471.18	387.14
471.39	384.04
471.599	413.68
471.808	425.31
472.018	412.13
472.227	455.92
472.436	476.26
472.645	437.32
472.855	398.18
473.064	448.56
473.273	441.78
473.482	462.7
473.691	470.06
473.901	458.44
474.11	440.23
474.319	541.36
474.528	474.71
474.737	502.61
474.946	474.52
475.155	468.13
475.364	500.87
475.573	496.41
475.783	500.87
475.992	536.52
476.201	519.66
476.41	491.96
476.619	469.87
476.828	469.68
477.037	476.07
477.245	496.8
477.454	502.23
477.663	504.74
477.872	499.32
478.081	533.81
478.29	465.99
478.499	575.85
478.708	501.06
478.917	570.81
479.125	523.92
479.334	521.21
479.543	526.06
479.752	518.89
479.961	547.76
480.169	578.37
480.378	527.61
480.587	649.47
480.796	551.44
481.004	571.2
481.213	586.7
481.422	531.29
481.63	591.35
481.839	579.92
482.048	639.79
482.256	581.66
482.465	612.08
482.674	604.72
482.882	609.95
483.091	676.4
483.299	605.88
483.508	632.62
483.716	596.39
483.925	612.66
484.134	558.61
484.342	582.05
484.551	650.83
484.759	620.41
484.967	655.09
485.176	651.6
485.384	664.78
485.593	665.17
485.801	661.49
486.01	599.87
486.218	591.35
486.426	534.19
486.635	568.87
486.843	554.54
487.051	587.09
487.26	572.94
487.468	627.39
487.676	633.2
487.885	577.4
488.093	632.23
488.301	657.8
488.509	659.35
488.717	704.5
488.926	666.91
489.134	644.24
489.342	692.29
489.55	613.24
489.758	645.6
489.967	657.42
490.175	739.37
490.383	658.58
490.591	738.4
490.799	665.55
491.007	708.18
491.215	692.1
491.423	696.75
491.631	691.52
491.839	698.88
492.047	739.37
492.255	665.36
492.463	613.24
492.671	677.95
492.879	714.77
493.087	685.32
493.295	711.28
493.503	705.85
493.711	762.62
493.919	753.9
494.127	769.79
494.334	751.97
494.542	696.36
494.75	744.22
494.958	717.48
495.166	779.67
495.374	769.79
495.581	777.35
495.789	762.82
495.997	824.81
496.205	735.88
496.412	766.3
496.62	758.75
496.828	772.5
497.035	758.75
497.243	797.69
497.451	776.38
497.658	796.72
497.866	775.41
498.074	834.7
498.281	746.54
498.489	839.73
498.696	771.15
498.904	761.27
499.112	753.9
499.319	838.96
499.527	772.7
499.734	828.5
499.942	761.46
500.149	779.86
500.357	831.01
500.564	790.52
500.771	800.21
500.979	766.5
501.186	735.69
501.394	806.21
501.601	757.39
501.808	801.95
502.016	764.95
502.223	739.76
502.43	809.31
502.638	782.58
502.845	713.6
503.052	848.65
503.26	768.82
503.467	876.54
503.674	799.24
503.881	796.72
504.089	881
504.296	823.65
504.503	761.85
504.71	793.04
504.917	760.1
505.125	845.55
505.332	798.46
505.539	836.44
505.746	892.63
505.953	863.18
506.16	822.88
506.367	862.98
506.574	901.93
506.781	927.5
506.988	823.85
507.195	856.59
507.402	843.8
507.609	877.51
507.816	855.04
508.023	825.2
508.23	842.25
508.437	803.31
508.644	880.23
508.851	917.23
509.058	908.32
509.265	871.12
509.472	909.48
509.679	954.04
509.885	851.75
510.092	873.06
510.299	864.34
510.506	842.06
510.713	876.93
510.92	873.64
511.126	912.19
511.333	919.56
511.54	897.86
511.746	946.68
511.953	958.69
512.16	970.51
512.367	909.87
512.573	893.21
512.78	915.68
512.987	933.7
513.193	940.87
513.4	876.35
513.606	908.71
513.813	920.53
514.02	927.31
514.226	998.61
514.433	962.18
514.639	908.71
514.846	914.33
515.052	895.14
515.259	928.08
515.465	954.04
515.672	942.81
515.878	1011.39
516.085	912
516.291	961.79
516.497	912.58
516.704	901.93
516.91	850.58
517.117	852.13
517.323	841.48
517.529	861.63
517.736	866.47
517.942	863.56
518.148	887.2
518.354	904.64
518.561	901.54
518.767	933.89
518.973	939.13
519.179	956.37
519.386	891.08
519.592	918.78
519.798	915.68
520.004	983.3
520.21	975.74
520.417	998.22
520.623	1033.67
520.829	1012.17
521.035	987.76
521.241	991.24
521.447	1023.02
521.653	1131.52
521.859	1022.24
522.065	1072.04
522.271	1106.72
522.477	1113.69
522.683	1109.82
522.889	1075.91
523.095	1092.77
523.301	1044.91
523.507	1050.14
523.713	1071.26
523.919	1050.34
524.125	1134.42
524.331	1087.34
524.537	1181.5
524.742	1152.05
524.948	1145.47
525.154	1148.18
525.36	1215.21
525.566	1145.08
525.772	1197.58
525.977	1122.6
526.183	1145.08
526.389	1172.2
526.595	1131.71
526.8	1116.4
527.006	1057.5
527.212	1018.17
527.417	1027.86
527.623	1030.38
527.829	1126.28
528.034	1116.21
528.24	1104.97
528.446	1108.65
528.651	1188.67
528.857	1210.76
529.062	1251.06
529.268	1179.76
529.473	1196.23
529.679	1183.44
529.884	1275.28
530.09	1266.75
530.295	1269.66
530.501	1273.34
530.706	1254.35
530.912	1213.86
531.117	1223.16
531.323	1234.98
531.528	1253.96
531.733	1285.74
531.939	1228.97
532.144	1291.16
532.35	1251.64
532.555	1275.28
532.76	1241.76
532.966	1272.37
533.171	1246.21
533.376	1219.48
533.581	1197.58
533.787	1243.5
533.992	1278.96
534.197	1322.36
534.402	1261.52
534.607	1267.53
534.813	1350.26
535.018	1283.03
535.223	1312.09
535.428	1294.26
535.633	1327.01
535.838	1333.79
536.043	1309.96
536.249	1432.41
536.454	1325.07
536.659	1324.1
536.864	1331.08
537.069	1296.39
537.274	1338.24
537.479	1338.24
537.684	1339.6
537.889	1281.28
538.094	1412.84
538.299	1304.73
538.504	1324.68
538.708	1326.81
538.913	1356.84
539.118	1364.59
539.323	1371.76
539.528	1278.57
539.733	1336.89
539.938	1375.06
540.142	1384.74
540.347	1320.23
540.552	1305.69
540.757	1329.14
540.962	1316.93
541.166	1254.55
541.371	1282.06
541.576	1327.2
541.781	1227.03
541.985	1357.23
542.19	1325.07
542.395	1397.72
542.599	1416.52
542.804	1362.08
543.008	1411.67
543.213	1344.25
543.418	1316.16
543.622	1356.65
543.827	1280.7
544.031	1410.9
544.236	1432.79
544.44	1360.33
544.645	1459.72
544.849	1376.03
545.054	1424.46
545.258	1454.49
545.463	1435.51
545.667	1354.71
545.872	1395.59
546.076	1411.87
546.281	1435.31
546.485	1350.84
546.689	1409.93
546.894	1433.57
547.098	1418.65
547.302	1362.66
547.507	1392.3
547.711	1429.69
547.915	1433.18
548.119	1370.21
548.324	1374.86
548.528	1454.88
548.732	1369.63
548.936	1461.47
549.141	1449.65
549.345	1394.43
549.549	1421.17
549.753	1411.09
549.957	1469.22
550.161	1505.45
550.366	1440.35
550.57	1381.45
550.774	1404.31
550.978	1417.68
551.182	1457.4
551.386	1395.21
551.59	1384.55
551.794	1375.25
551.998	1440.16
552.202	1431.63
552.406	1379.13
552.61	1410.12
552.814	1430.08
553.018	1466.7
553.222	1415.74
553.426	1426.21
553.63	1506.42
553.833	1419.81
554.037	1377.58
554.241	1458.76
554.445	1459.34
554.649	1443.64
554.853	1405.67
555.056	1476.58
555.26	1454.69
555.464	1447.52
555.668	1446.94
555.871	1487.82
556.075	1457.59
556.279	1412.06
556.483	1354.33
556.686	1402.18
556.89	1418.26
557.094	1454.88
557.297	1377.19
557.501	1462.44
557.704	1342.12
557.908	1432.99
558.112	1378.16
558.315	1414.97
558.519	1376.61
558.722	1381.45
558.926	1380.68
559.129	1323.13
559.333	1305.11
559.536	1266.95
559.74	1280.9
559.943	1326.81
560.147	1291.36
560.35	1316.16
560.553	1309.76
560.757	1293.49
560.96	1429.31
561.164	1323.71
561.367	1407.02
561.57	1329.33
561.774	1357.62
561.977	1317.51
562.18	1284.19
562.384	1382.61
562.587	1345.22
562.79	1324.49
562.993	1345.99
563.197	1382.42
563.4	1368.86
563.603	1399.27
563.806	1416.71
564.009	1323.13
564.212	1346.58
564.416	1262.1
564.619	1346.96
564.822	1295.81
565.025	1366.34
565.228	1297.94
565.431	1339.99
565.634	1235.75
565.837	1252.03
566.04	1270.63
566.243	1263.85
566.446	1191.19
566.649	1305.31
566.852	1234.01
567.055	1261.13
567.258	1284.19
567.461	1282.45
567.664	1321
567.867	1183.25
568.07	1274.31
568.273	1267.72
568.475	1302.4
568.678	1233.81
568.881	1246.6
569.084	1227.42
569.287	1145.08
569.489	1136.17
569.692	1242.53
569.895	1221.03
570.098	1149.34
570.3	1203.78
570.503	1126.87
570.706	1120.09
570.909	1140.82
571.111	1090.64
571.314	1095.87
571.516	1130.16
571.719	1157.67
571.922	1126.87
572.124	1145.27
572.327	1100.32
572.529	1083.85
572.732	1122.02
572.935	1157.67
573.137	1193.71
573.34	1121.25
573.542	1184.8
573.745	1148.95
573.947	1147.02
574.15	1117.95
574.352	1068.35
574.554	1160.97
574.757	1102.07
574.959	1092.77
575.162	1070.1
575.364	1078.24
575.566	1138.3
575.769	1090.64
575.971	1081.34
576.173	999.38
576.376	1081.53
576.578	1094.32
576.78	1147.79
576.982	1039.29
577.185	1045.49
577.387	1045.1
577.589	1058.47
577.791	1068.74
577.993	1085.79
578.196	1047.62
578.398	1084.44
578.6	1106.91
578.802	1022.63
579.004	1028.06
579.206	1031.54
579.408	1043.55
579.61	1044.14
579.812	1078.24
580.014	1036
580.216	1002.48
580.418	1022.63
580.62	1005
580.822	1015.07
581.024	1032.9
581.226	1064.09
581.428	1022.63
581.63	1104.78
581.832	1013.72
582.034	1099.16
582.236	1064.87
582.438	1078.04
582.64	1107.49
582.841	1106.91
583.043	1154.18
583.245	1106.52
583.447	1096.45
583.649	1036.39
583.85	1093.93
584.052	1112.72
584.254	1022.44
584.456	1102.65
584.657	1039.1
584.859	1043.75
585.061	1038.9
585.262	1027.86
585.464	1003.84
585.666	1066.22
585.867	1027.86
586.069	1117.76
586.27	1047.43
586.472	1078.62
586.674	1035.03
586.875	1028.83
587.077	1003.45
587.278	1030.96
587.48	1000.35
587.681	1091.41
587.883	1050.92
588.084	945.13
588.285	1004.22
588.487	978.07
588.688	980.01
588.89	944.94
589.091	905.22
589.292	945.13
589.494	913.94
589.695	904.06
589.896	833.92
590.098	851.94
590.299	910.64
590.5	895.92
590.702	872.86
590.903	913.74
591.104	950.36
591.305	944.36
591.507	982.33
591.708	963.92
591.909	929.44
592.11	1006.74
592.311	954.24
592.512	926.73
592.714	885.46
592.915	905.22
593.116	914.13
593.317	916.84
593.518	924.21
593.719	936.99
593.92	947.07
594.121	973.03
594.322	925.76
594.523	919.17
594.724	883.13
594.925	906.38
595.126	959.47
595.327	917.23
595.528	923.24
595.729	948.42
595.929	955.98
596.13	912.58
596.331	947.26
596.532	925.37
596.733	1025.34
596.934	972.64
597.135	964.51
597.335	974.39
597.536	905.8
597.737	940.09
597.938	906.38
598.138	943.58
598.339	939.32
598.54	936.22
598.74	898.63
598.941	939.32
599.142	990.47
599.342	922.27
599.543	912.97
599.744	935.83
599.944	888.36
600.145	924.01
600.345	919.94
600.546	998.8
600.746	986.98
600.947	993.96
601.147	944.74
601.348	970.51
601.548	912.97
601.749	937.58
601.949	885.65
602.15	910.64
602.35	929.05
602.551	1009.26
602.751	888.56
602.951	892.04
603.152	850.2
603.352	931.57
603.552	900.96
603.753	933.51
603.953	935.83
604.153	937.77
604.354	951.91
604.554	903.09
604.754	923.04
604.954	879.64
605.155	925.95
605.355	890.88
605.555	928.28
605.755	972.45
605.955	930.02
606.155	957.72
606.356	922.66
606.556	928.08
606.756	930.41
606.956	869.57
607.156	963.34
607.356	874.03
607.556	920.91
607.756	908.32
607.956	947.84
608.156	913.36
608.356	880.81
608.556	924.21
608.756	922.46
608.956	871.31
609.156	916.07
609.356	881
609.556	868.79
609.755	895.53
609.955	854.65
610.155	906.38
610.355	899.41
610.555	887.01
610.755	872.86
610.954	808.35
611.154	875.96
611.354	896.69
611.554	870.73
611.753	857.75
611.953	830.24
612.153	911.03
612.352	879.84
612.552	843.8
612.752	781.61
612.951	845.16
613.151	839.15
613.351	855.04
613.55	897.86
613.75	880.81
613.949	866.66
614.149	866.08
614.348	869.18
614.548	796.33
614.747	815.32
614.947	822.1
615.146	794.98
615.346	911.03
615.545	848.45
615.745	871.31
615.944	861.04
616.144	850.97
616.343	855.04
616.542	828.88
616.742	831.98
616.941	820.75
617.14	774.63
617.34	821.71
617.539	814.93
617.738	763.59
617.938	849.81
618.137	827.91
618.336	770.76
618.535	837.8
618.734	795.95
618.934	818.23
619.133	807.18
619.332	831.01
619.531	780.64
619.73	804.08
619.929	818.42
620.128	845.93
620.328	859.88
620.527	801.95
620.726	813
620.925	840.12
621.124	809.12
621.323	840.31
621.522	776.57
621.721	770.57
621.92	795.56
622.119	807.76
622.318	777.15
622.517	793.04
622.715	756.23
622.914	747.51
623.113	775.21
623.312	728.72
623.511	819.97
623.71	790.33
623.909	777.73
624.107	818.81
624.306	737.24
624.505	738.79
624.704	764.56
624.902	773.66
625.101	811.83
625.3	752.16
625.499	745.77
625.697	750.03
625.896	717.28
626.095	767.08
626.293	703.92
626.492	738.02
626.69	794.4
626.889	732.2
627.088	776.18
627.286	724.45
627.485	709.92
627.683	720
627.882	755.26
628.08	657.22
628.279	711.28
628.477	771.15
628.676	690.16
628.874	731.43
629.073	703.33
629.271	670.4
629.469	712.44
629.668	696.36
629.866	703.33
630.065	681.44
630.263	713.8
630.461	677.76
630.66	711.86
630.858	717.09
631.056	762.43
631.254	768.05
631.453	695
631.651	741.89
631.849	727.17
632.047	707.21
632.245	721.35
632.444	726.97
632.642	709.34
632.84	712.63
633.038	690.16
633.236	680.86
633.434	677.76
633.632	656.45
633.83	656.84
634.028	709.15
634.227	732.78
634.425	782.77
634.623	713.02
634.821	729.68
635.019	729.49
635.216	712.83
635.414	753.13
635.612	724.65
635.81	695.58
636.008	739.37
636.206	711.28
636.404	731.82
636.602	657.22
636.8	699.65
636.997	734.92
637.195	749.25
637.393	725.42
637.591	768.63
637.789	739.37
637.986	679.31
638.184	705.27
638.382	729.3
638.58	745.57
638.777	772.7
638.975	706.43
639.173	719.61
639.37	740.73
639.568	710.89
639.765	732.98
639.963	725.62
640.161	760.49
640.358	741.5
640.556	680.67
640.753	678.73
640.951	660.32
641.148	701.4
641.346	663.81
641.543	689.97
641.741	712.44
641.938	684.35
642.136	695.78
642.333	632.81
642.531	736.85
642.728	742.47
642.925	683.96
643.123	681.25
643.32	702.56
643.517	693.65
643.715	695
643.912	672.53
644.109	687.25
644.306	680.86
644.504	651.02
644.701	673.11
644.898	723.48
645.095	665.36
645.293	671.75
645.49	708.57
645.687	658.97
645.884	722.9
646.081	648.12
646.278	646.37
646.475	622.35
646.672	665.17
646.87	682.22
647.067	660.9
647.264	654.51
647.461	621.77
647.658	587.09
647.855	648.31
648.052	636.88
648.249	570.62
648.446	635.33
648.642	605.49
648.839	625.64
649.036	614.79
649.233	572.75
649.43	578.95
649.627	569.84
649.824	612.08
650.021	606.27
650.217	574.3
650.414	585.15
650.611	651.99
650.808	617.5
651.004	615.37
651.201	627.19
651.398	682.99
651.595	621.77
651.791	621.19
651.988	618.67
652.185	607.24
652.381	627.77
652.578	554.34
652.775	605.49
652.971	628.94
653.168	590.19
653.364	650.64
653.561	554.73
653.757	583.79
653.954	584.76
654.15	580.31
654.347	662.84
654.543	575.66
654.74	561.71
654.936	575.46
655.133	578.37
655.329	596.77
655.525	588.25
655.722	640.95
655.918	567.13
656.115	614.4
656.311	529.35
656.507	517.14
656.704	473.16
656.9	521.21
657.096	495.06
657.292	534.77
657.489	569.46
657.685	562.87
657.881	540.78
658.077	517.92
658.273	523.54
658.47	640.95
658.666	555.7
658.862	583.02
659.058	531.67
659.254	591.16
659.45	541.36
659.646	595.42
659.842	561.51
660.038	585.34
660.234	550.08
660.43	548.92
660.626	620.41
660.822	590.57
661.018	596.19
661.214	558.8
661.41	517.72
661.606	583.99
661.802	579.53
661.998	558.8
662.194	526.06
662.39	582.44
662.586	615.18
662.781	606.27
662.977	564.03
663.173	603.55
663.369	545.62
663.564	561.71
663.76	577.98
663.956	550.47
664.152	577.98
664.347	530.32
664.543	542.52
664.739	534.19
664.934	500.87
665.13	520.63
665.326	572.36
665.521	572.75
665.717	496.03
665.912	515.21
666.108	488.08
666.304	513.85
666.499	545.04
666.695	494.67
666.89	539.62
667.086	575.85
667.281	550.08
667.477	583.99
667.672	521.41
667.867	539.42
668.063	547.17
668.258	502.81
668.454	527.41
668.649	610.34
668.844	538.07
669.04	542.14
669.235	511.14
669.43	496.61
669.626	486.92
669.821	505.91
670.016	493.12
670.211	527.99
670.407	510.94
670.602	501.84
670.797	526.25
670.992	545.62
671.187	521.79
671.382	558.99
671.578	496.8
671.773	543.88
671.968	476.07
672.163	542.72
672.358	540.2
672.553	511.52
672.748	487.5
672.943	568.1
673.138	511.52
673.333	543.3
673.528	478.98
673.723	532.06
673.918	486.14
674.113	462.12
674.308	547.56
674.503	554.92
674.698	506.88
674.892	497.38
675.087	563.26
675.282	528.38
675.477	527.61
675.672	526.83
675.867	520.44
676.061	469.29
676.256	441.39
676.451	497.77
676.646	495.83
676.84	481.88
677.035	445.46
677.23	445.65
677.424	521.21
677.619	520.82
677.814	532.84
678.008	529.74
678.203	433.44
678.397	472.97
678.592	476.26
678.787	544.66
678.981	485.76
679.176	522.18
679.37	472.19
679.565	457.47
679.759	470.06
679.954	498.74
680.148	552.41
680.342	552.79
680.537	533.81
680.731	476.84
680.926	492.34
681.12	530.32
681.314	463.48
681.509	482.66
681.703	483.82
681.897	500.87
682.092	492.15
682.286	478.59
682.48	552.79
682.674	505.13
682.869	510.75
683.063	458.83
683.257	555.31
683.451	462.51
683.645	499.9
683.839	506.1
684.034	486.92
684.228	529.16
684.422	459.21
684.616	441.58
684.81	505.13
685.004	475.1
685.198	499.9
685.392	525.86
685.586	455.53
685.78	515.79
685.974	508.43
686.168	526.44
686.362	533.81
686.556	477.62
686.75	437.51
686.944	433.83
687.138	444.88
687.331	389.27
687.525	384.62
687.719	323.01
687.913	403.41
688.107	409.23
688.301	353.43
688.494	406.71
688.688	372.41
688.882	366.99
689.076	337.93
689.269	398.38
689.463	463.28
689.657	385.01
689.85	383.46
690.044	393.34
690.238	408.84
690.431	416.98
690.625	415.23
690.818	420.66
691.012	428.02
691.205	418.53
691.399	393.53
691.593	437.71
691.786	473.94
691.98	500.09
692.173	521.02
692.366	484.98
692.56	486.53
692.753	533.81
692.947	448.75
693.14	567.32
693.333	510.56
693.527	431.31
693.72	525.67
693.914	470.64
694.107	480.33
694.3	516.37
694.493	479.56
694.687	557.06
694.88	459.41
695.073	525.28
695.266	540.39
695.46	511.72
695.653	559.96
695.846	549.11
696.039	478.2
696.232	517.34
696.425	542.91
696.618	545.43
696.812	571.2
697.005	616.15
697.198	653.93
697.391	614.02
697.584	628.16
697.777	652.19
697.97	646.95
698.163	671.56
698.356	606.65
698.549	719.22
698.742	702.95
698.935	640.17
699.127	657.22
699.32	608.4
699.513	643.27
699.706	655.67
699.899	676.4
700.092	639.2
700.285	696.55
700.477	639.4
700.67	680.47
700.863	683.38
701.056	766.5
701.248	714.57
701.441	766.88
701.634	733.75
701.826	792.85
702.019	710.5
702.212	782.38
702.404	719.61
702.597	710.5
702.79	745.77
702.982	736.27
703.175	783.74
703.367	804.47
703.56	816.87
703.752	892.82
703.945	845.93
704.137	844.58
704.33	871.31
704.522	875.58
704.715	857.75
704.907	911.61
705.1	945.13
705.292	918.78
705.484	872.67
705.677	963.15
705.869	918.2
706.061	962.57
706.254	981.75
706.446	923.63
706.638	933.89
706.831	1009.84
707.023	984.85
707.215	1062.93
707.407	1033.87
707.599	1035.22
707.792	1074.55
707.984	1041.04
708.176	1051.3
708.368	1002.29
708.56	1078.24
708.752	1050.34
708.944	1057.5
709.136	1106.72
709.329	1080.56
709.521	1211.15
709.713	1176.66
709.905	1147.6
710.097	1213.47
710.289	1145.47
710.481	1143.92
710.672	1184.22
710.864	1182.67
711.056	1249.9
711.248	1244.28
711.44	1231.88
711.632	1248.15
711.824	1225.68
712.016	1319.45
712.207	1291.75
712.399	1272.76
712.591	1351.42
712.783	1319.06
712.975	1339.02
713.166	1296.01
713.358	1353.74
713.55	1370.99
713.741	1354.91
713.933	1382.03
714.125	1382.23
714.316	1352.39
714.508	1450.62
714.7	1401.79
714.891	1428.53
715.083	1444.61
715.274	1432.79
715.466	1436.09
715.657	1490.34
715.849	1356.84
716.04	1450.81
716.232	1356.65
716.423	1435.51
716.615	1399.47
716.806	1375.06
716.998	1332.82
717.189	1304.34
717.381	1245.44
717.572	1216.57
717.763	1256.48
717.955	1249.7
718.146	1243.11
718.337	1178.4
718.528	1178.6
718.72	1114.47
718.911	1183.25
719.102	1150.7
719.293	1200.3
719.485	1153.22
719.676	1165.42
719.867	1126.87
720.058	1151.28
720.249	1133.84
720.44	1167.55
720.632	1213.28
720.823	1291.36
721.014	1344.44
721.205	1353.16
721.396	1415.36
721.587	1478.52
721.778	1486.46
721.969	1521.92
722.16	1568.61
722.351	1556.4
722.542	1643.98
722.733	1652.5
722.924	1586.43
723.115	1655.6
723.305	1663.16
723.496	1675.36
723.687	1528.12
723.878	1587.98
724.069	1559.89
724.26	1592.63
724.45	1547.88
724.641	1527.54
724.832	1587.6
725.023	1562.99
725.213	1553.69
725.404	1536.06
725.595	1528.31
725.785	1530.25
725.976	1589.53
726.167	1600.38
726.357	1581.2
726.548	1705.98
726.739	1614.33
726.929	1678.85
727.12	1733.1
727.31	1722.83
727.501	1680.01
727.691	1657.15
727.882	1690.28
728.072	1746.08
728.263	1723.22
728.453	1801.3
728.644	1788.9
728.834	1783.86
729.024	1742.98
729.215	1753.06
729.405	1782.31
729.596	1882.48
729.786	1892.36
729.976	1872.21
730.167	1894.11
730.357	1835.98
730.547	1871.44
730.737	1874.15
730.928	1913.09
731.118	1928.98
731.308	1934.4
731.498	1952.23
731.688	2016.17
731.879	2011.9
732.069	2085.91
732.259	2075.65
732.449	2105.1
732.639	2140.36
732.829	2167.48
733.019	2192.28
733.209	2273.27
733.399	2223.28
733.589	2297.49
733.779	2350.19
733.969	2336.82
734.159	2366.46
734.349	2449.38
734.539	2464.3
734.729	2502.47
734.919	2523.2
735.109	2560.98
735.299	2508.48
735.488	2529.4
735.678	2543.93
735.868	2597.41
736.058	2555.95
736.248	2490.85
736.437	2483.29
736.627	2477.87
736.817	2604.96
737.007	2595.08
737.196	2602.83
737.386	2598.57
737.576	2583.46
737.765	2625.89
737.955	2585.59
738.144	2700.09
738.334	2687.31
738.524	2621.82
738.713	2626.08
738.903	2663.28
739.092	2715.4
739.282	2697.19
739.471	2709.2
739.661	2688.86
739.85	2730.32
740.04	2731.29
740.229	2751.44
740.419	2791.15
740.608	2849.47
740.797	2771.97
740.987	2860.32
741.176	2862.26
741.365	2824.67
741.555	2770.42
741.744	2841.14
741.933	2837.46
742.123	2872.33
742.312	2862.45
742.501	2918.06
742.69	2904.11
742.88	2856.64
743.069	3025.2
743.258	2906.05
743.447	2981.22
743.636	2949.45
743.825	2909.53
744.014	2917.67
744.204	2936.85
744.393	2963.4
744.582	2986.45
744.771	3018.61
744.96	2907.4
745.149	2979.28
745.338	2985.29
745.527	3037.21
745.716	2969.4
745.905	2976.57
746.094	2995.75
746.283	3053.1
746.471	3030.24
746.66	3086.81
746.849	3062.01
747.038	3044.96
747.227	3011.83
747.416	3050.78
747.604	3015.32
747.793	3031.6
747.982	3009.7
748.171	3066.28
748.359	3026.95
748.548	3039.54
748.737	3057.17
748.926	3029.46
749.114	2931.23
749.303	3076.16
749.491	3060.85
749.68	2995.36
749.869	3070.34
750.057	3014.93
750.246	3051.94
750.434	2996.53
750.623	3032.76
750.811	2990.33
751	3027.53
751.188	3005.05
751.377	3040.51
751.565	2960.88
751.754	2971.53
751.942	2982.96
752.131	3052.33
752.319	3012.61
752.507	2938.79
752.696	3031.01
752.884	3059.11
753.072	2986.26
753.261	3055.23
753.449	2963.2
753.637	2962.04
753.825	3100.57
754.014	3022.1
754.202	3011.45
754.39	3078.68
754.578	3042.06
754.766	3008.93
754.955	2956.23
755.143	3048.06
755.331	2990.91
755.519	2992.07
755.707	2998.08
755.895	2974.25
756.083	2961.46
756.271	2923.68
756.459	2958.94
756.647	3004.66
756.835	2965.14
757.023	2896.94
757.211	2923.1
757.399	2911.08
757.587	2910.31
757.775	2898.3
757.963	2897.72
758.151	2903.14
758.339	2870.01
758.526	2874.27
758.714	2866.91
758.902	2856.84
759.09	2737.29
759.278	2543.35
759.465	2378.28
759.653	2017.52
759.841	1889.46
760.028	1591.86
760.216	1400.82
760.404	1303.95
760.591	1118.92
760.779	908.13
760.967	772.31
761.154	661.49
761.342	653.15
761.529	713.6
761.717	728.72
761.905	719.61
762.092	788.78
762.28	738.79
762.467	736.66
762.655	671.37
762.842	677.18
763.029	727.36
763.217	710.5
763.404	717.28
763.592	729.68
763.779	691.9
763.966	737.24
764.154	771.34
764.341	853.1
764.528	830.05
764.716	899.21
764.903	924.4
765.09	980.78
765.277	1031.74
765.465	1160.19
765.652	1234.4
765.839	1253.38
766.026	1383.97
766.213	1434.54
766.4	1512.42
766.588	1707.33
766.775	1693
766.962	1799.56
767.149	1866.59
767.336	1979.35
767.523	1919.87
767.71	2086.69
767.897	2140.94
768.084	2228.71
768.271	2230.64
768.458	2302.52
768.645	2380.6
768.832	2341.27
769.019	2361.04
769.206	2361.04
769.392	2455.97
769.579	2570.48
769.766	2539.86
769.953	2525.72
770.14	2552.65
770.327	2508.48
770.513	2628.6
770.7	2650.3
770.887	2604
771.073	2627.24
771.26	2619.11
771.447	2592.76
771.634	2596.83
771.82	2666.77
772.007	2550.52
772.193	2610.97
772.38	2654.56
772.567	2611.36
772.753	2632.28
772.94	2698.35
773.126	2650.49
773.313	2682.46
773.499	2622.21
773.686	2673.55
773.872	2591.4
774.059	2638.09
774.245	2560.98
774.432	2613.68
774.618	2565.44
774.804	2646.23
774.991	2560.79
775.177	2606.13
775.363	2579.78
775.55	2607.48
775.736	2548.78
775.922	2527.27
776.109	2593.53
776.295	2574.74
776.481	2630.54
776.667	2581.52
776.853	2556.33
777.04	2551.68
777.226	2564.86
777.412	2605.74
777.598	2477.09
777.784	2519.33
777.97	2524.56
778.156	2562.53
778.342	2560.4
778.528	2532.11
778.715	2458.88
778.901	2524.95
779.087	2520.1
779.272	2475.73
779.458	2461.2
779.644	2502.67
779.83	2469.53
780.016	2560.01
780.202	2483.48
780.388	2453.26
780.574	2417.03
780.76	2435.82
780.946	2489.88
781.131	2480.97
781.317	2428.46
781.503	2429.43
781.689	2398.43
781.874	2534.05
782.06	2393.78
782.246	2419.35
782.432	2423.81
782.617	2410.05
782.803	2463.14
782.989	2360.45
783.174	2369.56
783.36	2325.19
783.545	2369.37
783.731	2376.15
783.916	2308.72
784.102	2375.37
784.288	2335.66
784.473	2342.44
784.659	2324.61
784.844	2375.37
785.029	2306.59
785.215	2298.65
785.4	2267.65
785.586	2405.99
785.771	2273.46
785.956	2306.98
786.142	2322.67
786.327	2263.39
786.512	2293.42
786.698	2266.1
786.883	2221.93
787.068	2262.42
787.254	2258.54
787.439	2233.55
787.624	2242.08
787.809	2198.68
787.994	2213.59
788.18	2271.72
788.365	2124.08
788.55	2195.19
788.735	2151.4
788.92	2206.62
789.105	2171.74
789.29	2201.39
789.475	2081.27
789.66	2183.76
789.845	2106.45
790.03	2136.48
790.215	2170.78
790.4	2141.71
790.585	2182.01
790.77	2127.38
790.955	2061.5
791.14	2128.93
791.325	2203.91
791.51	2020.04
791.695	2086.11
791.879	2095.41
792.064	2036.12
792.249	2129.51
792.434	2079.13
792.618	2078.75
792.803	2100.83
792.988	2086.3
793.173	2121.37
793.357	2136.29
793.542	2056.66
793.727	2108.78
793.911	2136.68
794.096	2105.48
794.281	2094.63
794.465	2182.79
794.65	2107.42
794.834	2142.88
795.019	2180.08
795.203	2150.24
795.388	2130.28
795.572	2170
795.757	2138.03
795.941	2154.5
796.126	2121.37
796.31	2075.45
796.494	2092.11
796.679	2128.54
796.863	2050.65
797.048	2125.25
797.232	2128.93
797.416	2151.6
797.601	2096.18
797.785	2191.12
797.969	2190.54
798.153	2109.55
798.338	2160.9
798.522	2162.64
798.706	2144.04
798.89	2158.96
799.074	2275.79
799.258	2212.43
799.443	2181.43
799.627	2167.68
799.811	2186.08
799.995	2152.76
800.179	2138.03
800.363	2132.22
800.547	2184.73
800.731	2184.92
800.915	2104.51
801.099	2123.7
801.283	2109.55
801.467	2148.5
801.651	2131.25
801.835	2197.71
802.019	2171.74
802.202	2170.19
802.386	2097.93
802.57	2049.1
802.754	2124.28
802.938	2066.93
803.121	2073.9
803.305	2172.91
803.489	2124.28
803.673	2118.85
803.856	2136.68
804.04	2109.55
804.224	2112.46
804.407	2127.76
804.591	2108.97
804.775	2085.91
804.958	2147.33
805.142	2196.93
805.326	2119.05
805.509	2127.57
805.693	2181.43
805.876	2172.52
806.06	2148.3
806.243	2150.82
806.427	2172.52
806.61	2205.84
806.794	2116.33
806.977	2193.64
807.16	2161.48
807.344	2186.86
807.527	2132.41
807.71	2170.78
807.894	2138.03
808.077	2171.55
808.26	2103.16
808.444	2117.69
808.627	2167.1
808.81	2100.83
808.993	2053.56
809.177	2037.48
809.36	2080.68
809.543	2072.35
809.726	2036.32
809.909	2032.83
810.092	1984.2
810.276	2003.77
810.459	2005.32
810.642	2027.6
810.825	1982.45
811.008	1952.81
811.191	1885
811.374	1920.07
811.557	1947.19
811.74	1986.33
811.923	1897.98
812.106	1868.92
812.289	1862.14
812.472	1855.94
812.654	1877.64
812.837	1810.02
813.02	1790.45
813.203	1786.58
813.386	1687.18
813.569	1643.59
813.751	1605.42
813.934	1655.99
814.117	1654.05
814.3	1598.83
814.482	1514.36
814.665	1555.82
814.848	1498.47
815.03	1467.28
815.213	1427.95
815.396	1441.9
815.578	1411.48
815.761	1388.62
815.943	1484.91
816.126	1359.36
816.309	1361.88
816.491	1271.98
816.674	1218.9
816.856	1337.86
817.039	1290.78
817.221	1362.46
817.403	1322.55
817.586	1325.26
817.768	1332.04
817.951	1269.66
818.133	1228
818.315	1281.09
818.498	1308.41
818.68	1375.06
818.862	1329.91
819.045	1367.69
819.227	1380.29
819.409	1306.66
819.591	1353.94
819.774	1337.08
819.956	1317.51
820.138	1368.08
820.32	1365.18
820.502	1416.52
820.684	1481.23
820.866	1475.61
821.048	1513.78
821.231	1534.32
821.413	1493.24
821.595	1510.1
821.777	1487.43
821.959	1521.92
822.141	1557.37
822.323	1414.97
822.505	1374.48
822.686	1347.16
822.868	1298.14
823.05	1207.85
823.232	1186.73
823.414	1131.9
823.596	1197.2
823.778	1162.32
823.96	1189.64
824.141	1230.91
824.323	1232.85
824.505	1262.68
824.687	1314.41
824.868	1374.48
825.05	1450.42
825.232	1479.49
825.413	1547.1
825.595	1469.22
825.777	1422.91
825.958	1485.3
826.14	1435.31
826.321	1509.32
826.503	1445.19
826.685	1481.62
826.866	1500.99
827.048	1498.86
827.229	1451.59
827.411	1444.61
827.592	1373.89
827.773	1364.79
827.955	1330.3
828.136	1341.93
828.318	1292.33
828.499	1365.76
828.68	1270.05
828.862	1324.29
829.043	1300.27
829.224	1326.81
829.406	1266.95
829.587	1300.27
829.768	1329.14
829.949	1271.6
830.131	1299.11
830.312	1382.61
830.493	1319.64
830.674	1359.17
830.855	1312.67
831.036	1325.46
831.218	1390.17
831.399	1381.26
831.58	1335.92
831.761	1305.5
831.942	1371.76
832.123	1314.99
832.304	1277.6
832.485	1311.12
832.666	1301.82
832.847	1335.53
833.028	1321.78
833.209	1328.17
833.389	1318.29
833.57	1295.04
833.751	1288.84
833.932	1352.39
834.113	1325.26
834.294	1325.26
834.475	1349.29
834.655	1352
834.836	1356.46
835.017	1359.75
835.198	1296.2
835.378	1352.39
835.559	1360.14
835.74	1366.92
835.92	1326.23
836.101	1290.78
836.281	1380.68
836.462	1368.08
836.643	1386.49
836.823	1406.06
837.004	1409.93
837.184	1422.52
837.365	1425.04
837.545	1417.1
837.726	1381.26
837.906	1436.47
838.087	1372.54
838.267	1360.14
838.448	1331.46
838.628	1362.46
838.808	1383.58
838.989	1458.56
839.169	1364.4
839.349	1386.68
839.53	1409.74
839.71	1422.33
839.89	1357.62
840.07	1413.22
840.251	1379.32
840.431	1386.87
840.611	1375.25
840.791	1339.41
840.971	1360.14
841.151	1353.55
841.332	1335.73
841.512	1386.29
841.692	1298.72
841.872	1378.16
842.052	1383.77
842.232	1415.74
842.412	1303.95
842.592	1333.79
842.772	1368.08
842.952	1370.99
843.132	1316.74
843.312	1343.86
843.492	1327.98
843.672	1368.47
843.851	1301.63
844.031	1363.24
844.211	1364.4
844.391	1335.14
844.571	1333.4
844.751	1343.86
844.93	1368.28
845.11	1268.3
845.29	1341.34
845.47	1357.23
845.649	1339.02
845.829	1383.19
846.009	1322.36
846.188	1364.01
846.368	1341.73
846.547	1324.49
846.727	1365.18
846.907	1281.09
847.086	1350.06
847.266	1353.36
847.445	1345.8
847.625	1301.04
847.804	1297.75
847.984	1340.38
848.163	1284.77
848.343	1279.73
848.522	1298.91
848.701	1318.29
848.881	1235.17
849.06	1310.54
849.239	1306.08
849.419	1298.33
849.598	1241.37
849.777	1260.94
849.957	1214.44
850.136	1187.51
850.315	1180.73
850.494	1170.85
850.674	1170.65
850.853	1248.73
851.032	1180.34
851.211	1288.65
851.39	1259
851.569	1182.08
851.748	1192.93
851.927	1252.8
852.107	1214.44
852.286	1156.12
852.465	1157.87
852.644	1229.36
852.823	1238.85
853.002	1178.79
853.181	1170.46
853.359	1252.03
853.538	1137.91
853.717	1236.72
853.896	1119.7
854.075	1081.92
854.254	1062.54
854.433	991.44
854.611	1023.6
854.79	1005.77
854.969	1068.55
855.148	1111.95
855.327	1051.5
855.505	1063.9
855.684	1074.17
855.863	1107.1
856.041	1067.39
856.22	1127.64
856.399	1075.72
856.577	1163.1
856.756	1144.5
856.934	1276.05
857.113	1257.84
857.291	1167.94
857.47	1168.13
857.648	1146.63
857.827	1185.96
858.005	1201.07
858.184	1116.21
858.362	1212.5
858.541	1150.7
858.719	1139.46
858.898	1165.62
859.076	1126.87
859.254	1197.39
859.433	1125.7
859.611	1109.24
859.789	1146.82
859.967	1175.3
860.146	1181.5
860.324	1121.05
860.502	1124.54
860.68	1082.89
860.859	1092.38
861.037	1102.65
861.215	1136.36
861.393	1090.25
861.571	1089.28
861.749	1082.5
861.927	1122.6
862.105	1098.39
862.283	1104.59
862.461	1072.23
862.639	1055.95
862.817	1085.02
862.995	1085.21
863.173	1085.21
863.351	1093.54
863.529	1110.79
863.707	1134.81
863.885	1072.23
864.063	991.44
864.241	1040.65
864.418	1144.3
864.596	1067
864.774	1026.51
864.952	1040.26
865.129	1067.58
865.307	1017.01
865.485	999.19
865.663	1069.52
865.84	984.85
866.018	1039.49
866.196	890.49
866.373	935.06
866.551	921.69
866.728	860.08
866.906	922.08
867.084	920.91
867.261	996.67
867.439	951.33
867.616	1001.32
867.794	969.16
867.971	1002.09
868.149	952.88
868.326	1023.02
868.503	995.51
868.681	965.47
868.858	955.01
869.035	941.06
869.213	1014.69
869.39	997.83
869.567	1058.67
869.745	981.56
869.922	993.18
870.099	1022.63
870.276	996.09
870.454	1006.36
870.631	1002.67
870.808	987.95
870.985	998.22
871.162	1029.41
871.339	1021.27
871.517	943.39
871.694	947.07
871.871	963.73
872.048	956.76
872.225	930.02
872.402	964.89
872.579	930.99
872.756	955.4
872.933	901.15
873.11	955.21
873.287	959.27
873.463	941.06
873.64	917.81
873.817	950.17
873.994	939.32
874.171	893.79
874.348	943.19
874.524	896.5
874.701	928.08
874.878	877.71
875.055	940.87
875.231	933.51
875.408	940.29
875.585	871.7
875.762	912.39
875.938	906.19
876.115	882.36
876.291	888.17
876.468	875.19
876.645	843.8
876.821	880.23
876.998	882.55
877.174	878.09
877.351	875.38
877.527	898.44
877.704	896.5
877.88	887.98
878.057	887.01
878.233	899.79
878.409	865.89
878.586	895.34
878.762	871.12
878.938	881.39
879.115	801.76
879.291	860.85
879.467	842.64
879.644	836.83
879.82	847.48
879.996	829.46
880.172	796.53
880.349	808.73
880.525	860.08
880.701	823.26
880.877	801.37
881.053	852.71
881.229	843.8
881.405	887.39
881.581	793.43
881.757	801.95
881.933	812.8
882.109	868.21
882.285	806.41
882.461	772.11
882.637	818.81
882.813	830.82
882.989	825.2
883.165	901.15
883.341	791.68
883.517	880.61
883.693	842.25
883.869	851.75
884.044	806.8
884.22	840.12
884.396	876.54
884.572	864.53
884.747	862.21
884.923	824.62
885.099	839.73
885.275	877.32
885.45	812.22
885.626	790.91
885.801	811.25
885.977	816.48
886.153	788
886.328	836.25
886.504	829.08
886.679	852.91
886.855	811.83
887.03	832.18
887.206	866.47
887.381	820.75
887.557	840.51
887.732	817.65
887.908	853.49
888.083	841.86
888.258	816.1
888.434	807.96
888.609	802.92
888.784	849.03
888.96	849.81
889.135	779.28
889.31	804.08
889.485	818.03
889.661	815.51
889.836	850.97
890.011	823.26
890.186	825.2
890.361	785.68
890.537	808.93
890.712	845.93
890.887	816.48
891.062	831.21
891.237	867.24
891.412	796.53
891.587	818.81
891.762	815.9
891.937	845.35
892.112	762.62
892.287	776.76
892.462	756.62
892.637	735.5
892.812	733.56
892.987	745.57
893.161	763.78
893.336	726.2
893.511	710.89
893.686	753.32
893.861	772.5
894.035	732.4
894.21	741.89
894.385	711.47
894.56	730.65
894.734	681.83
894.909	689.58
895.084	668.46
895.258	679.12
895.433	696.36
895.608	667.49
895.782	626.22
895.957	644.05
896.131	645.6
896.306	570.42
896.48	572.36
896.655	605.1
896.829	531.09
897.004	543.69
897.178	536.32
897.353	522.18
897.527	608.79
897.701	543.11
897.876	513.27
898.05	590.77
898.224	547.76
898.399	597.74
898.573	566.55
898.747	466.38
898.921	522.96
899.096	425.11
899.27	433.83
899.444	449.33
899.618	474.91
899.792	496.03
899.967	471.81
900.141	505.71
900.315	470.06
900.489	493.51
900.663	488.47
900.837	496.8
901.011	437.32
901.185	545.24
901.359	489.83
901.533	501.64
901.707	497.58
901.881	478.39
902.055	435.19
902.229	449.91
902.403	524.89
902.576	458.44
902.75	472.39
902.924	569.26
903.098	533.61
903.272	575.85
903.446	607.82
903.619	575.66
903.793	608.4
903.967	571.01
904.14	619.64
904.314	616.54
904.488	605.49
904.661	643.27
904.835	573.14
905.009	612.85
905.182	663.04
905.356	609.56
905.529	599.1
905.703	609.37
905.876	586.51
906.05	556.86
906.223	525.86
906.397	512.3
906.57	482.08
906.744	480.33
906.917	502.61
907.09	469.68
907.264	497.77
907.437	456.31
907.61	411.16
907.784	420.08
907.957	432.67
908.13	432.86
908.304	470.84
908.477	430.93
908.65	446.04
908.823	435.19
908.996	470.06
909.17	412.71
909.343	441.97
909.516	441.58
909.689	417.56
909.862	383.65
910.035	428.02
910.208	367.18
910.381	385.59
910.554	489.63
910.727	442.55
910.9	387.53
911.073	372.03
911.246	467.16
911.419	442.16
911.592	461.73
911.765	402.25
911.938	406.51
912.11	400.7
912.283	429.57
912.456	459.6
912.629	445.26
912.802	410.39
912.974	380.94
913.147	329.6
913.32	302.47
913.493	343.16
913.665	382.68
913.838	381.33
914.01	337.93
914.183	359.24
914.356	356.14
914.528	414.07
914.701	410.78
914.873	420.66
915.046	346.26
915.218	348.39
915.391	282.32
915.563	317.2
915.736	363.5
915.908	375.32
916.081	342
916.253	367.38
916.425	362.73
916.598	381.52
916.77	331.34
916.942	330.76
917.115	288.91
917.287	345.87
917.459	344.51
917.632	321.46
917.804	253.26
917.976	342
918.148	318.55
918.32	348.58
918.493	380.55
918.665	409.03
918.837	366.21
919.009	425.11
919.181	411.55
919.353	364.66
919.525	379
919.697	344.13
919.869	400.31
920.041	422.01
920.213	474.52
920.385	408.45
920.557	375.51
920.729	414.07
920.901	397.6
921.073	358.27
921.244	367.18
921.416	426.66
921.588	360.4
921.76	375.32
921.932	424.14
922.103	378.23
922.275	375.71
922.447	409.81
922.619	342.77
922.79	388.69
922.962	350.52
923.134	424.73
923.305	317
923.477	317.78
923.648	330.95
923.82	348.39
923.991	300.92
924.163	302.67
924.335	332.5
924.506	313.9
924.677	389.08
924.849	290.07
925.02	339.86
925.192	351.88
925.363	342
925.535	327.47
925.706	308.28
925.877	360.4
926.049	295.3
926.22	344.9
926.391	329.98
926.562	338.51
926.734	290.27
926.905	350.91
927.076	287.17
927.247	286.58
927.419	280.97
927.59	248.03
927.761	267.21
927.932	279.03
928.103	274.77
928.274	266.05
928.445	208.12
928.616	238.92
928.787	225.55
928.958	242.22
929.129	249.97
929.3	195.72
929.471	187.77
929.642	153.67
929.813	134.88
929.984	197.85
930.155	151.74
930.326	177.7
930.496	144.18
930.667	95.74
930.838	151.74
931.009	95.16
931.18	116.47
931.35	120.54
931.521	119.77
931.692	91.48
931.863	49.63
932.033	69.78
932.204	106.98
932.374	90.12
932.545	72.3
932.716	125.19
932.886	110.27
933.057	7.39
933.227	56.41
933.398	121.12
933.568	56.99
933.739	32.97
933.909	48.86
934.08	81.21
934.25	-7.91
934.421	39.75
934.591	81.02
934.761	21.15
934.932	-10.24
935.102	41.3
935.272	33.16
935.443	28.51
935.613	29.48
935.783	60.87
935.953	24.44
936.123	157.94
936.294	12.24
936.464	25.61
936.634	40.33
936.804	-0.55
936.974	-21.47
937.144	48.86
937.314	51.96
937.484	50.99
937.655	16.89
937.825	73.07
937.995	35.49
938.165	65.71
938.334	50.21
938.504	57.38
938.674	19.02
938.844	28.13
939.014	109.31
939.184	67.84
939.354	126.16
939.524	110.27
939.694	37.43
939.863	83.15
940.033	132.36
940.203	131.39
940.373	75.01
940.542	93.42
940.712	76.17
940.882	119.77
941.051	104.85
941.221	113.96
941.391	131.59
941.56	46.34
941.73	53.89
941.899	164.72
942.069	63.58
942.238	103.69
942.408	70.36
942.577	110.86
942.747	82.96
942.916	16.69
943.086	32.97
943.255	76.56
943.425	64.55
943.594	60.09
943.763	3.91
943.933	26.96
944.102	9.33
944.271	63.78
944.441	54.09
944.61	45.18
944.779	42.08
944.948	115.7
945.117	20.38
945.287	68.62
945.456	-15.08
945.625	31.61
945.794	57.58
945.963	49.83
946.132	78.89
946.301	-0.36
946.47	96.32
946.639	6.43
946.808	41.49
946.977	62.61
947.146	121.9
947.315	27.16
947.484	65.33
947.653	36.46
947.822	34.91
947.991	24.64
948.16	149.61
948.329	82.76
948.498	42.27
948.666	63.19
948.835	109.69
949.004	15.34
949.173	33.55
949.341	34.13
949.51	60.68
949.679	98.26
949.847	79.08
950.016	148.25
950.185	120.16
950.353	34.13
950.522	61.64
950.69	126.74
950.859	51.18
951.028	85.28
951.196	76.76
951.365	30.45
951.533	70.94
951.701	70.56
951.87	96.52
952.038	23.48
952.207	68.04
952.375	112.79
952.543	57.19
952.712	53.7
952.88	37.43
953.048	117.44
953.217	70.56
953.385	60.48
953.553	129.07
953.721	47.69
953.89	48.28
954.058	18.63
954.226	52.54
954.394	63.19
954.562	24.06
954.73	72.11
954.898	19.79
955.067	91.67
955.235	33.74
955.403	82.57
955.571	123.45
955.739	62.23
955.907	61.06
956.075	45.37
956.243	50.41
956.41	66.29
956.578	29.68
956.746	13.4
956.914	61.84
957.082	70.36
957.25	67.07
957.418	36.07
957.585	66.88
957.753	83.73
957.921	37.04
958.089	48.66
958.256	67.07
958.424	78.11
958.592	80.24
958.759	18.05
958.927	77.92
959.095	46.92
959.262	48.86
959.43	81.99
959.597	41.3
959.765	50.6
959.932	26.96
960.1	125.39
960.267	56.41
960.435	44.79
960.602	106.01
960.77	40.33
960.937	37.04
961.104	94
961.272	32.19
961.439	31.81
961.606	59.51
961.774	94.58
961.941	25.61
962.108	51.18
962.275	51.76
962.443	121.9
962.61	99.04
962.777	141.08
962.944	97.49
963.111	79.27
963.278	71.91
963.446	85.86
963.613	70.17
963.78	94.19
963.947	82.57
964.114	73.66
964.281	136.82
964.448	87.41
964.615	59.32
964.782	75.98
964.949	92.64
965.116	79.27
965.282	155.81
965.449	68.62
965.616	39.94
965.783	103.69
965.95	83.92
966.117	42.85
966.283	67.65
966.45	111.05
966.617	90.32
966.784	134.49
966.95	122.29
967.117	115.51
967.284	40.53
967.45	48.28
967.617	119.57
967.784	91.09
967.95	143.79
968.117	71.53
968.283	140.69
968.45	171.3
968.616	105.62
968.783	130.04
968.949	127.13
969.116	128.68
969.282	73.07
969.449	102.91
969.615	95.55
969.781	44.79
969.948	96.52
970.114	48.47
970.28	146.7
970.447	80.82
970.613	131.39
970.779	79.86
970.945	107.56
971.112	90.71
971.278	81.99
971.444	90.51
971.61	147.47
971.776	92.64
971.942	86.83
972.108	126.74
972.275	91.48
972.441	118.8
972.607	151.93
972.773	75.01
972.939	81.41
973.105	92.84
973.271	72.69
973.437	83.73
973.602	62.23
973.768	107.17
973.934	93.81
974.1	106.79
974.266	15.14
974.432	109.5
974.598	74.43
974.763	110.08
974.929	88.96
975.095	143.02
975.261	54.48
975.426	52.54
975.592	95.16
975.758	128.1
975.923	39.94
976.089	40.53
976.255	105.82
976.42	80.05
976.586	94.39
976.751	81.21
976.917	177.89
977.082	96.91
977.248	36.07
977.413	36.84
977.579	59.32
977.744	98.46
977.91	33.94
978.075	73.07
978.24	116.86
978.406	60.87
978.571	74.04
978.736	81.02
978.902	102.14
979.067	34.91
979.232	18.05
979.397	84.51
979.563	118.02
979.728	36.84
979.893	81.99
980.058	71.91
980.223	105.43
980.388	93.22
980.554	79.66
980.719	58.35
980.884	112.99
981.049	110.08
981.214	66.29
981.379	107.37
981.544	51.38
981.709	56.03
981.874	64.16
982.039	93.22
982.204	92.06
982.368	94.77
982.533	32.78
982.698	118.99
982.863	123.45
983.028	64.94
983.193	87.02
983.357	63
983.522	99.42
983.687	51.96
983.852	90.32
984.016	59.71
984.181	89.54
984.346	87.8
984.51	94.97
984.675	85.86
984.839	100.2
985.004	71.53
985.168	133.91
985.333	78.5
985.498	64.94
985.662	115.89
985.827	98.84
985.991	56.22
986.155	71.33
986.32	111.05
986.484	161.62
986.649	76.76
986.813	18.44
986.977	86.06
987.142	76.76
987.306	21.15
987.47	46.73
987.634	81.21
987.799	108.92
987.963	88.19
988.127	97.29
988.291	152.9
988.455	68.23
988.62	81.21
988.784	115.12
988.948	96.52
989.112	55.06
989.276	69.98
989.44	71.14
989.604	39.36
989.768	43.43
989.932	135.85
990.096	40.33
990.26	53.51
990.424	42.27
990.588	86.83
990.752	114.73
990.915	102.33
991.079	71.14
991.243	49.44
991.407	99.04
991.571	56.99
991.734	87.8
991.898	105.62
992.062	138.17
992.226	71.14
992.389	43.24
992.553	29.87
992.717	42.46
992.88	32.78
993.044	66.1
993.207	42.46
993.371	80.44
993.535	109.69
993.698	59.9
993.862	100.01
994.025	85.09
994.189	76.37
994.352	86.83
994.515	92.64
994.679	106.4
994.842	36.26
995.006	90.9
995.169	32
995.332	34.91
995.496	103.11
995.659	27.74
995.822	65.13
995.985	65.13
996.149	96.71
996.312	43.43
996.475	110.08
996.638	35.88
996.801	106.21
996.964	115.89
997.128	65.71
997.291	56.61
997.454	76.56
997.617	24.64
997.78	114.92
997.943	70.17
998.106	93.22
998.269	38.2
998.432	63.78
998.595	49.44
998.758	7.01
998.92	49.44
999.083	-0.55
999.246	69.78
999.409	44.21
999.572	7.78
999.735	24.44
999.897	70.56
1000.06	49.24
1000.223	41.11
1000.386	91.87
1000.548	75.21
1000.711	52.34
1000.874	75.98
1001.036	-3.26
1001.199	83.73
1001.361	26.58
1001.524	44.79
1001.687	92.64
1001.849	23.67
1002.012	61.06
1002.174	63.58
1002.337	87.8
1002.499	36.84
1002.661	76.37
1002.824	10.11
1002.986	21.93
1003.149	53.31
1003.311	10.49
1003.473	120.54
1003.636	29.48
1003.798	90.32
1003.96	69.39
1004.123	64.74
1004.285	41.49
1004.447	44.21
1004.609	35.88
1004.771	96.13
1004.933	11.08
1005.096	21.34
1005.258	4.29
1005.42	34.33
1005.582	58.93
1005.744	65.13
1005.906	36.65
1006.068	50.21
1006.23	-3.84
1006.392	-4.04
1006.554	13.01
1006.716	85.86
1006.878	56.22
1007.04	-3.26
1007.202	41.3
1007.363	22.89
1007.525	55.44
1007.687	53.89
1007.849	81.02
1008.011	0.03
1008.172	13.01
1008.334	32.19
1008.496	42.46
1008.658	-0.55
1008.819	13.59
1008.981	-31.74
1009.143	29.48
1009.304	4.29
1009.466	59.71
1009.627	95.94
1009.789	138.76
1009.95	66.29
1010.112	3.91
1010.273	42.85
1010.435	18.44
1010.596	24.83
1010.758	32.19
1010.919	7.01
1011.081	5.26
1011.242	31.61
1011.403	51.18
1011.565	18.24
1011.726	43.63
1011.887	-6.56
1012.049	9.91
1012.21	59.32
1012.371	104.27
1012.532	-14.5
1012.693	31.23
1012.855	14.37
1013.016	25.99
1013.177	64.94
1013.338	25.61
1013.499	92.64
1013.66	33.55
1013.821	62.61
1013.982	72.69
1014.143	47.69
1014.304	16.5
1014.465	34.71
1014.626	62.23
1014.787	30.84
1014.948	96.91
1015.109	-31.16
1015.27	65.91
1015.431	16.31
1015.592	7.59
1015.752	71.91
1015.913	55.06
1016.074	57.77
1016.235	26.58
1016.395	16.69
1016.556	13.79
1016.717	40.72
1016.877	83.34
1017.038	-3.46
1017.199	13.59
1017.359	18.05
1017.52	48.28
1017.681	13.4
1017.841	21.73
1018.002	22.51
1018.162	39.75
1018.323	79.86
1018.483	21.93
1018.644	27.16
1018.804	-15.66
1018.964	-9.66
1019.125	1.19
1019.285	37.43
1019.446	18.24
1019.606	8.36
1019.766	-18.57
1019.926	48.47
1020.087	44.79
1020.247	6.81
1020.407	38.39
1020.567	59.9
1020.728	28.32
1020.888	-15.66
1021.048	29.68
1021.208	-25.35
1021.368	0.61
1021.528	81.99
1021.688	59.32
1021.848	46.53
1022.008	41.69
1022.168	11.46
1022.328	52.54
1022.488	12.24
1022.648	11.66
1022.808	17.86
1022.968	26.38
1023.128	9.14
1023.288	21.15
1023.448	19.02
1023.608	42.66
1023.767	33.94
1023.927	14.37
1024.087	9.72
1024.247	-24.57
1024.406	-1.32
1024.566	-12.76
1024.726	6.81
1024.885	36.84
1025.045	55.44
1025.205	22.7
1025.364	17.66
1025.524	24.83
1025.683	4.1
1025.843	45.18
1026.003	-4.23
1026.162	71.53
1026.321	64.16
1026.481	4.88
1026.64	-14.5
1026.8	36.26
1026.959	38.39
1027.119	21.54
1027.278	-6.94
1027.437	-3.84
1027.597	31.42
1027.756	31.42
1027.915	28.9
1028.074	46.53
1028.234	-6.94
1028.393	47.89
1028.552	12.04
1028.711	-65.07
1028.87	39.75
1029.03	-21.67
1029.189	24.83
1029.348	-30.58
1029.507	-3.46
1029.666	-10.82
1029.825	-21.28
1029.984	11.08
1030.143	0.81
1030.302	-11.59
1030.461	-37.36
1030.62	-12.76
1030.779	38.98
1030.938	-10.82
1031.097	-35.42
1031.255	27.93
1031.414	81.21
1031.573	47.69
1031.732	-46.47
1031.891	7.78
1032.049	45.76
1032.208	39.56
1032.367	-9.66
1032.525	-25.93
1032.684	14.76
1032.843	3.71
1033.001	-49.95
1033.16	146.12
1033.319	73.27
1033.477	36.65
1033.636	10.11
1033.794	-25.54
1033.953	20.18
1034.111	38.01
1034.27	0.61
1034.428	34.33
1034.587	-2.1
1034.745	18.44
1034.903	16.11
1035.062	25.41
1035.22	-25.93
1035.378	30.45
1035.537	0.42
1035.695	24.44
1035.853	1.19
1036.011	41.11
1036.17	44.59
1036.328	-46.66
1036.486	19.02
1036.644	24.83
1036.802	-68.36
1036.96	-31.16
1037.119	15.53
1037.277	-20.89
1037.435	-31.94
1037.593	-6.56
1037.751	20.76
1037.909	-4.04
1038.067	-4.04
