Data from oakcork_FLMT105791__10__17-26-45-067.txt Node

Date: Mon Mar 20 17:26:45 GMT 2023
User: antho
Spectrometer: FLMT10579
Trigger mode: 0
Integration Time (sec): 1.000000E-1
Scans to average: 10
Electric dark correction enabled: true
Nonlinearity correction enabled: false
Boxcar width: 0
XAxis mode: Wavelengths
Number of Pixels in Spectrum: 3648
>>>>>Begin Spectral Data<<<<<
345.248	-160.79
345.464	-160.79
345.681	-160.79
345.898	-160.41
346.114	-174.55
346.331	-46.1
346.548	41.87
346.764	-21.88
346.981	-14.13
347.197	-18.58
347.414	22.68
347.631	-12.77
347.847	41.87
348.064	12.03
348.28	44.38
348.497	-38.73
348.713	-10.64
348.93	22.88
349.146	27.53
349.363	0.02
349.579	6.41
349.796	19.2
350.012	-18.78
350.229	22.1
350.445	2.34
350.661	-5.99
350.878	-10.64
351.094	17.45
351.311	11.25
351.527	12.8
351.743	2.15
351.96	22.1
352.176	48.45
352.392	8.35
352.609	39.54
352.825	4.47
353.041	-9.09
353.257	13.19
353.474	-21.88
353.69	17.26
353.906	19.39
354.122	-7.15
354.339	32.76
354.555	1.76
354.771	0.21
354.987	58.33
355.203	44.38
355.42	4.28
355.636	-13.35
355.852	-12.77
356.068	27.33
356.284	-28.08
356.5	43.22
356.716	31.02
356.932	-11.61
357.148	40.7
357.364	3.12
357.58	33.53
357.796	62.4
358.012	37.99
358.228	11.25
358.444	-67.8
358.66	65.12
358.876	43.8
359.092	-24.01
359.308	-1.34
359.524	18.23
359.74	5.05
359.956	-8.12
360.172	9.12
360.388	53.49
360.604	-15.29
360.819	72.67
361.035	23.27
361.251	29.66
361.467	-17.61
361.683	45.93
361.898	26.95
362.114	21.33
362.33	12.61
362.546	35.67
362.762	38.77
362.977	37.41
363.193	-16.65
363.409	73.25
363.624	-0.37
363.84	-5.02
364.056	-4.83
364.271	42.64
364.487	10.87
364.703	-4.83
364.918	-18
365.134	5.05
365.35	-3.28
365.565	110.45
365.781	23.27
365.996	10.87
366.212	73.64
366.427	15.32
366.643	-9.67
366.858	-1.34
367.074	-32.53
367.289	45.93
367.505	113.94
367.72	-20.91
367.936	4.67
368.151	23.27
368.367	37.8
368.582	21.72
368.798	-13.35
369.013	60.85
369.228	34.5
369.444	34.5
369.659	86.23
369.874	24.43
370.09	73.64
370.305	-42.41
370.52	-10.06
370.736	80.03
370.951	41.09
371.166	49.42
371.381	62.79
371.597	47.87
371.812	0.98
372.027	10.67
372.242	31.6
372.458	73.64
372.673	4.47
372.888	12.03
373.103	21.13
373.318	91.85
373.533	41.28
373.749	36.63
373.964	-32.15
374.179	49.42
374.394	-27.69
374.609	67.44
374.824	-20.52
375.039	65.89
375.254	-9.28
375.469	78.1
375.684	24.23
375.899	66.47
376.114	33.15
376.329	23.46
376.544	55.04
376.759	42.83
376.974	-2.7
377.189	0.21
377.404	34.5
377.619	70.73
377.834	-33.11
378.049	-31.56
378.264	-23.81
378.478	34.12
378.693	-27.11
378.908	60.85
379.123	5.44
379.338	63.18
379.553	23.85
379.767	27.33
379.982	68.22
380.197	61.82
380.412	23.46
380.626	39.35
380.841	130.6
381.056	52.33
381.271	92.82
381.485	18.23
381.7	8.73
381.915	47.48
382.129	13
382.344	33.53
382.559	25.98
382.773	52.52
382.988	-26.72
383.202	32.76
383.417	15.71
383.632	129.63
383.846	31.02
384.061	42.25
384.275	5.25
384.49	36.63
384.704	60.08
384.919	46.9
385.133	55.82
385.348	55.23
385.562	0.98
385.777	90.88
385.991	27.92
386.206	27.53
386.42	21.91
386.634	83.71
386.849	50.58
387.063	50.39
387.277	-11.03
387.492	17.84
387.706	15.71
387.92	-15.29
388.135	79.07
388.349	56.01
388.563	35.47
388.778	49.03
388.992	50
389.206	71.12
389.42	98.05
389.635	52.52
389.849	77.71
390.063	80.42
390.277	46.71
390.491	94.37
390.706	74.22
390.92	78.48
391.134	27.92
391.348	50
391.562	16.87
391.776	69.18
391.99	20.36
392.205	48.65
392.419	19.2
392.633	45.74
392.847	81.78
393.061	14.74
393.275	87.59
393.489	51.36
393.703	49.03
393.917	63.18
394.131	23.46
394.345	64.53
394.559	87.59
394.773	33.15
394.986	59.69
395.2	35.28
395.414	91.46
395.628	25.59
395.842	72.67
396.056	7.96
396.27	3.5
396.484	75.77
396.697	47.1
396.911	100.76
397.125	58.14
397.339	82.75
397.553	62.21
397.766	114.91
397.98	94.95
398.194	92.43
398.408	57.17
398.621	82.16
398.835	89.53
399.049	86.43
399.262	87.98
399.476	109.29
399.69	106.38
399.903	151.53
400.117	71.12
400.331	111.61
400.544	58.72
400.758	153.27
400.971	90.69
401.185	124.79
401.398	51.55
401.612	151.53
401.826	106.77
402.039	125.95
402.253	59.88
402.466	123.43
402.68	97.86
402.893	105.8
403.106	116.65
403.32	81.39
403.533	87.78
403.747	59.11
403.96	115.88
404.174	101.15
404.387	74.22
404.6	100.38
404.814	146.68
405.027	90.5
405.24	92.82
405.454	72.48
405.667	149.59
405.88	49.81
406.094	112.58
406.307	122.08
406.52	135.83
406.733	76.74
406.947	75.38
407.16	143.39
407.373	144.36
407.586	112.58
407.799	73.06
408.012	118.4
408.226	82.75
408.439	148.62
408.652	28.3
408.865	98.63
409.078	171.68
409.291	116.26
409.504	76.55
409.717	114.33
409.93	125.37
410.143	126.15
410.357	80.81
410.57	63.95
410.783	93.21
410.996	131.38
411.209	120.91
411.421	163.35
411.634	126.15
411.847	126.92
412.06	128.47
412.273	117.04
412.486	105.22
412.699	205
412.912	103.86
413.125	169.35
413.338	112.58
413.55	153.85
413.763	136.61
413.976	136.41
414.189	106.58
414.402	94.18
414.615	145.52
414.827	84.49
415.04	150.56
415.253	131.57
415.466	175.55
415.678	187.76
415.891	124.01
416.104	137.19
416.316	115.68
416.529	112.97
416.742	165.09
416.954	167.22
417.167	134.86
417.38	142.03
417.592	177.1
417.805	123.05
418.017	72.67
418.23	146.1
418.442	108.71
418.655	120.33
418.868	106.96
419.08	169.93
419.293	190.86
419.505	164.7
419.718	159.08
419.93	161.21
420.142	123.63
420.355	196.86
420.567	199.38
420.78	160.44
420.992	136.8
421.205	208.68
421.417	111.23
421.629	139.51
421.842	101.35
422.054	75
422.266	146.68
422.479	174.97
422.691	125.56
422.903	180.2
423.115	126.34
423.328	143
423.54	126.73
423.752	149.98
423.964	129.83
424.177	167.03
424.389	131.76
424.601	248.21
424.813	136.03
425.025	169.93
425.238	188.92
425.45	161.6
425.662	133.7
425.874	442.15
426.086	184.08
426.298	175.94
426.51	168.96
426.722	159.47
426.934	145.13
427.146	167.03
427.358	119.95
427.57	157.53
427.782	145.52
427.994	159.66
428.206	141.84
428.418	87.98
428.63	179.43
428.842	204.61
429.054	148.43
429.266	188.14
429.478	136.41
429.69	187.76
429.902	105.41
430.114	187.56
430.325	170.32
430.537	128.86
430.749	132.93
430.961	75.58
431.173	135.64
431.384	162.18
431.596	85.46
431.808	154.24
432.02	187.95
432.231	204.61
432.443	214.88
432.655	188.14
432.867	149.78
433.078	222.24
433.29	233.29
433.502	229.03
433.713	203.06
433.925	206.36
434.136	227.86
434.348	133.9
434.56	136.22
434.771	285.6
434.983	154.24
435.194	166.45
435.406	150.36
435.617	221.08
435.829	271.84
436.04	219.53
436.252	244.72
436.463	263.12
436.675	253.63
436.886	208.29
437.098	239.29
437.309	255.18
437.521	203.26
437.732	210.43
437.943	192.02
438.155	226.89
438.366	164.51
438.578	240.46
438.789	200.35
439	244.33
439.211	197.64
439.423	212.36
439.634	227.67
439.845	261.57
440.057	230.19
440.268	258.28
440.479	212.36
440.69	217.98
440.902	214.69
441.113	225.34
441.324	205.39
441.535	236.78
441.746	323.77
441.957	214.69
442.168	243.75
442.38	277.27
442.591	248.01
442.802	232.13
443.013	232.32
443.224	257.31
443.435	230.38
443.646	235.61
443.857	254.02
444.068	233.68
444.279	203.84
444.49	298.77
444.701	269.71
444.912	374.72
445.123	280.56
445.334	283.47
445.545	277.66
445.756	255.57
445.967	228.06
446.178	279.4
446.388	294.9
446.599	278.62
446.81	273.59
447.021	240.26
447.232	306.52
447.443	320.86
447.653	242.98
447.864	322.02
448.075	272.23
448.286	310.98
448.496	267.19
448.707	315.24
448.918	253.83
449.129	365.23
449.339	253.83
449.55	319.7
449.761	269.71
449.971	307.49
450.182	263.32
450.393	313.31
450.603	287.54
450.814	335.39
451.024	294.32
451.235	349.73
451.446	373.95
451.656	358.06
451.867	274.75
452.077	329.77
452.288	370.46
452.498	368.14
452.709	305.56
452.919	316.02
453.13	247.43
453.34	329.77
453.55	245.11
453.761	316.21
453.971	319.89
454.182	339.46
454.392	329.97
454.602	384.22
454.813	317.18
455.023	328.81
455.233	275.72
455.444	329.39
455.654	260.41
455.864	300.13
456.075	310.21
456.285	300.91
456.495	321.44
456.705	348.37
456.916	366.97
457.126	398.75
457.336	315.63
457.546	255.57
457.756	329.97
457.967	352.44
458.177	295.67
458.387	295.09
458.597	308.27
458.807	317.18
459.017	307.88
459.227	314.66
459.437	331.52
459.647	355.35
459.857	373.95
460.068	310.21
460.278	371.82
460.488	361.55
460.698	406.3
460.908	303.23
461.117	316.21
461.327	329.97
461.537	379.95
461.747	361.35
461.957	362.9
462.167	424.9
462.377	367.94
462.587	355.35
462.797	406.3
463.007	357.29
463.216	364.26
463.426	411.73
463.636	377.44
463.846	325.71
464.056	341.79
464.265	381.5
464.475	327.84
464.685	359.22
464.895	383.44
465.104	363.1
465.314	396.81
465.524	377.44
465.733	305.36
465.943	409.99
466.153	444.86
466.362	392.35
466.572	393.32
466.782	335.59
466.991	380.15
467.201	441.57
467.41	321.25
467.62	397
467.829	365.42
468.039	382.86
468.249	395.26
468.458	360.97
468.668	412.12
468.877	405.14
469.086	435.75
469.296	450.67
469.505	372.4
469.715	470.43
469.924	387.12
470.134	447.38
470.343	450.28
470.552	394.49
470.762	416.96
470.971	389.64
471.18	395.65
471.39	398.36
471.599	349.34
471.808	407.85
472.018	394.87
472.227	434.98
472.436	476.05
472.645	408.05
472.855	394.29
473.064	473.34
473.273	422.19
473.482	455.9
473.691	485.55
473.901	494.27
474.11	450.09
474.319	517.51
474.528	427.81
474.737	497.75
474.946	498.33
475.155	451.06
475.364	479.93
475.573	474.5
475.783	488.26
475.992	532.05
476.201	504.92
476.41	476.05
476.619	458.42
476.828	500.66
477.037	461.13
477.245	496.78
477.454	507.25
477.663	489.42
477.872	489.62
478.081	548.71
478.29	465.98
478.499	602.96
478.708	507.63
478.917	588.81
479.125	525.65
479.334	542.12
479.543	539.6
479.752	580.48
479.961	534.76
480.169	574.09
480.378	525.46
480.587	664.38
480.796	571.76
481.004	562.46
481.213	567.7
481.422	549.87
481.63	577.19
481.839	585.13
482.048	622.33
482.256	604.89
482.465	610.51
482.674	621.56
482.882	613.61
483.091	681.43
483.299	626.21
483.508	607.61
483.716	602.38
483.925	640.93
484.134	580.48
484.342	604.31
484.551	638.22
484.759	635.12
484.967	663.41
485.176	655.46
485.384	640.93
485.593	676
485.801	644.61
486.01	612.06
486.218	602.96
486.426	536.31
486.635	564.98
486.843	553.55
487.051	588.81
487.26	584.36
487.468	612.84
487.676	641.32
487.885	614.97
488.093	630.28
488.301	666.12
488.509	635.89
488.717	701.77
488.926	669.22
489.134	622.72
489.342	682.78
489.55	623.69
489.758	651.59
489.967	657.98
490.175	754.66
490.383	664.18
490.591	769.77
490.799	661.66
491.007	737.61
491.215	736.84
491.423	725.21
491.631	705.06
491.839	683.17
492.047	739.74
492.255	662.83
492.463	620.78
492.671	685.11
492.879	732.77
493.087	707.58
493.295	738.77
493.503	749.82
493.711	756.41
493.919	793.6
494.127	730.25
494.334	776.75
494.542	680.84
494.75	752.53
494.958	748.07
495.166	800
495.374	796.7
495.581	774.04
495.789	774.23
495.997	826.54
496.205	785.47
496.412	742.26
496.62	744.59
496.828	785.47
497.035	756.41
497.243	769.97
497.451	789.15
497.658	810.65
497.866	757.37
498.074	831.58
498.281	781.59
498.489	843.79
498.696	791.09
498.904	777.52
499.112	758.73
499.319	843.01
499.527	766.48
499.734	849.21
499.942	746.72
500.149	804.07
500.357	784.89
500.564	750.21
500.771	800.77
500.979	751.17
501.186	794.96
501.394	794.38
501.601	738
501.808	803.49
502.016	761.25
502.223	794.38
502.43	812.79
502.638	775.59
502.845	759.51
503.052	848.63
503.26	777.91
503.467	854.64
503.674	816.27
503.881	816.47
504.089	902.68
504.296	844.95
504.503	758.15
504.71	802.9
504.917	751.37
505.125	823.05
505.332	827.12
505.539	829.64
505.746	893.38
505.953	836.81
506.16	849.4
506.367	900.94
506.574	898.81
506.781	879.05
506.988	837.39
507.195	840.88
507.402	870.72
507.609	903.85
507.816	852.89
508.023	829.84
508.23	842.24
508.437	801.55
508.644	872.27
508.851	913.73
509.058	908.5
509.265	897.26
509.472	888.35
509.679	976.31
509.885	877.5
510.092	872.65
510.299	905.4
510.506	856.38
510.713	874.59
510.92	894.93
511.126	906.37
511.333	951.12
511.54	904.82
511.746	988.71
511.953	974.37
512.16	944.53
512.367	904.43
512.573	920.51
512.78	911.02
512.987	909.66
513.193	936.4
513.4	841.07
513.606	912.95
513.813	916.63
514.02	932.91
514.226	985.03
514.433	961.78
514.639	873.23
514.846	908.69
515.052	900.75
515.259	902.49
515.465	914.12
515.672	915.67
515.878	1029.4
516.085	949.57
516.291	975.15
516.497	888.54
516.704	906.17
516.91	846.5
517.117	854.44
517.323	808.91
517.529	846.89
517.736	831.58
517.942	889.9
518.148	872.07
518.354	871.49
518.561	895.9
518.767	899.78
518.973	934.46
519.179	923.03
519.386	909.85
519.592	894.93
519.798	920.51
520.004	972.24
520.21	927.48
520.417	1023.2
520.623	1012.73
520.829	1020.48
521.035	1000.72
521.241	1019.9
521.447	1054.39
521.653	1141.19
521.859	1051.29
522.065	1032.69
522.271	1132.27
522.477	1052.06
522.683	1086.55
522.889	1036.18
523.095	1078.61
523.301	1035.21
523.507	1038.7
523.713	1059.43
523.919	1017.58
524.125	1098.56
524.331	1070.08
524.537	1129.56
524.742	1086.55
524.948	1136.92
525.154	1123.94
525.36	1233.8
525.566	1135.76
525.772	1186.33
525.977	1103.79
526.183	1146.03
526.389	1154.36
526.595	1080.74
526.8	1108.64
527.006	1060.98
527.212	1022.61
527.417	1021.06
527.623	1018.55
527.829	1081.71
528.034	1087.91
528.24	1093.72
528.446	1076.28
528.651	1157.27
528.857	1149.52
529.062	1215.2
529.268	1121.43
529.473	1182.84
529.679	1191.76
529.884	1230.7
530.09	1235.74
530.295	1219.07
530.501	1237.48
530.706	1178.58
530.912	1185.17
531.117	1175.09
531.323	1200.67
531.528	1228.76
531.733	1267.9
531.939	1209.77
532.144	1267.32
532.35	1225.85
532.555	1272.74
532.76	1232.64
532.966	1256.66
533.171	1214.04
533.376	1186.14
533.581	1153.39
533.787	1207.64
533.992	1248.52
534.197	1260.34
534.402	1226.44
534.607	1242.9
534.813	1357.22
535.018	1242.52
535.223	1244.84
535.428	1292.89
535.633	1274.87
535.838	1308.97
536.043	1295.22
536.249	1338.23
536.454	1280.1
536.659	1326.99
536.864	1288.24
537.069	1304.52
537.274	1311.1
537.479	1309.17
537.684	1340.17
537.889	1233.02
538.094	1380.08
538.299	1263.44
538.504	1302
538.708	1301.61
538.913	1333.58
539.118	1298.32
539.323	1323.31
539.528	1283.2
539.733	1291.92
539.938	1332.22
540.142	1325.05
540.347	1288.63
540.552	1279.91
540.757	1287.47
540.962	1270.42
541.166	1236.12
541.371	1219.46
541.576	1283.79
541.781	1187.3
541.985	1303.16
542.19	1282.24
542.395	1326.6
542.599	1400.81
542.804	1317.5
543.008	1374.07
543.213	1314.98
543.418	1265.96
543.622	1361.87
543.827	1214.04
544.031	1372.52
544.236	1377.75
544.44	1315.56
544.645	1429.1
544.849	1341.72
545.054	1372.91
545.258	1439.56
545.463	1403.13
545.667	1335.71
545.872	1362.64
546.076	1393.25
546.281	1388.8
546.485	1329.51
546.689	1380.66
546.894	1395.58
547.098	1357.8
547.302	1317.88
547.507	1356.83
547.711	1365.74
547.915	1409.33
548.119	1330.09
548.324	1340.94
548.528	1424.45
548.732	1345.78
548.936	1367.1
549.141	1393.06
549.345	1362.83
549.549	1407.78
549.753	1384.53
549.957	1435.88
550.161	1432.97
550.366	1345.59
550.57	1394.8
550.774	1356.25
550.978	1381.63
551.182	1394.41
551.386	1372.33
551.59	1372.52
551.794	1354.31
551.998	1391.51
552.202	1399.84
552.406	1320.21
552.61	1392.28
552.814	1385.31
553.018	1444.21
553.222	1357.99
553.426	1389.38
553.63	1486.44
553.833	1359.73
554.037	1338.03
554.241	1392.67
554.445	1392.48
554.649	1371.36
554.853	1330.87
555.056	1438.4
555.26	1413.98
555.464	1407.78
555.668	1398.1
555.871	1429.29
556.075	1443.24
556.279	1350.24
556.483	1326.99
556.686	1355.67
556.89	1362.45
557.094	1396.93
557.297	1299.48
557.501	1393.83
557.704	1314.59
557.908	1401
558.112	1333.77
558.315	1380.85
558.519	1317.3
558.722	1315.56
558.926	1323.5
559.129	1240.39
559.333	1239.8
559.536	1254.14
559.74	1274.49
559.943	1273.52
560.147	1274.1
560.35	1290.95
560.553	1293.67
560.757	1237.87
560.96	1339.97
561.164	1291.15
561.367	1359.54
561.57	1281.65
561.774	1278.36
561.977	1292.7
562.18	1285.92
562.384	1360.12
562.587	1273.32
562.79	1269.84
562.993	1265.19
563.197	1307.81
563.4	1352.37
563.603	1337.45
563.806	1385.89
564.009	1286.11
564.212	1272.16
564.416	1234.57
564.619	1311.49
564.822	1233.22
565.025	1318.27
565.228	1262.28
565.431	1280.49
565.634	1207.64
565.837	1218.3
566.04	1207.64
566.243	1238.84
566.446	1175.09
566.649	1232.64
566.852	1181.1
567.055	1202.02
567.258	1259.95
567.461	1277.97
567.664	1286.89
567.867	1176.84
568.07	1243.68
568.273	1255.69
568.475	1276.04
568.678	1172.77
568.881	1196.41
569.084	1218.1
569.287	1118.91
569.489	1151.26
569.692	1187.3
569.895	1219.07
570.098	1112.71
570.3	1108.44
570.503	1076.09
570.706	1106.89
570.909	1120.46
571.111	1067.76
571.314	1075.31
571.516	1108.83
571.719	1101.47
571.922	1116.78
572.124	1096.24
572.327	1107.28
572.529	1056.13
572.732	1061.94
572.935	1093.91
573.137	1168.7
573.34	1070.66
573.542	1119.29
573.745	1126.85
573.947	1129.76
574.15	1092.17
574.352	1084.81
574.554	1182.84
574.757	1070.08
574.959	1055.55
575.162	1049.74
575.364	1028.81
575.566	1125.88
575.769	1058.84
575.971	1050.13
576.173	990.84
576.376	1041.6
576.578	1087.91
576.78	1109.03
576.982	980.18
577.185	1022.03
577.387	982.9
577.589	1023.2
577.791	1048.38
577.993	1088.29
578.196	1022.61
578.398	1058.84
578.6	1054.39
578.802	993.36
579.004	968.36
579.206	999.75
579.408	1044.12
579.61	1008.86
579.812	1060.39
580.014	1006.15
580.216	989.87
580.418	1035.4
580.62	1000.33
580.822	926.32
581.024	1029.01
581.226	1045.48
581.428	990.65
581.63	1092.36
581.832	989.87
582.034	1054
582.236	1025.71
582.438	1033.46
582.64	1069.69
582.841	1087.33
583.043	1131.31
583.245	1061.17
583.447	1063.88
583.649	1054.39
583.85	1015.64
584.052	1099.92
584.254	973.21
584.456	1064.46
584.657	993.16
584.859	1001.11
585.061	994.71
585.262	1018.74
585.464	954.61
585.666	1016.61
585.867	1011.76
586.069	1080.93
586.27	1012.35
586.472	1008.47
586.674	993.94
586.875	1000.72
587.077	1007.31
587.278	998.98
587.48	987.16
587.681	1078.03
587.883	1013.12
588.084	924
588.285	992.97
588.487	948.22
588.688	979.8
588.89	918.77
589.091	874.78
589.292	899
589.494	855.22
589.695	862.97
589.896	807.17
590.098	818.6
590.299	910.63
590.5	847.08
590.702	868
590.903	862.77
591.104	977.08
591.305	944.34
591.507	970.69
591.708	926.13
591.909	906.75
592.11	966.23
592.311	952.67
592.512	894.35
592.714	874.4
592.915	892.61
593.116	900.55
593.317	892.22
593.518	910.43
593.719	903.46
593.92	933.1
594.121	954.61
594.322	907.14
594.523	913.15
594.724	863.35
594.925	913.73
595.126	925.16
595.327	912.37
595.528	904.62
595.729	875.75
595.929	905.01
596.13	921.28
596.331	896.29
596.532	940.66
596.733	967.78
596.934	938.14
597.135	983.48
597.335	944.34
597.536	883.5
597.737	908.3
597.938	896.68
598.138	961.2
598.339	893
598.54	909.08
598.74	917.41
598.941	955
599.142	939.88
599.342	927.29
599.543	873.43
599.744	925.93
599.944	892.61
600.145	894.55
600.345	928.07
600.546	970.69
600.746	943.57
600.947	998.2
601.147	897.84
601.348	986.19
601.548	896.48
601.749	936.78
601.949	868.39
602.15	876.53
602.35	905.2
602.551	923.61
602.751	860.45
602.951	900.94
603.152	809.88
603.352	917.99
603.552	910.82
603.753	948.8
603.953	962.36
604.153	909.47
604.354	887.18
604.554	900.36
604.754	880.98
604.954	861.22
605.155	924
605.355	869.17
605.555	933.88
605.755	970.3
605.955	905.4
606.155	930.58
606.356	899.39
606.556	923.61
606.756	904.23
606.956	848.82
607.156	939.88
607.356	886.6
607.556	907.33
607.756	885.25
607.956	946.08
608.156	922.83
608.356	871.3
608.556	924
608.756	886.6
608.956	836.62
609.156	915.47
609.356	828.48
609.556	864.52
609.755	875.95
609.955	860.84
610.155	881.37
610.355	867.81
610.555	863.16
610.755	845.14
610.954	802.13
611.154	874.59
611.354	894.93
611.554	852.5
611.753	846.11
611.953	805.23
612.153	898.23
612.352	859.67
612.552	807.94
612.752	769.97
612.951	823.83
613.151	833.32
613.351	775.97
613.55	819.95
613.75	828.09
613.949	810.65
614.149	865.29
614.348	825.19
614.548	793.02
614.747	765.71
614.947	804.07
615.146	741.87
615.346	865.87
615.545	845.72
615.745	790.31
615.944	845.92
616.144	787.99
616.343	789.15
616.542	768.42
616.742	800.97
616.941	832.35
617.14	759.12
617.34	771.71
617.539	786.82
617.738	759.31
617.938	828.87
618.137	798.45
618.336	758.54
618.535	815.69
618.734	785.66
618.934	810.46
619.133	773.84
619.332	789.54
619.531	767.64
619.73	770.94
619.929	817.44
620.128	792.83
620.328	856.19
620.527	734.71
620.726	783.53
620.925	807.94
621.124	779.46
621.323	784.5
621.522	773.07
621.721	730.64
621.92	767.06
622.119	788.37
622.318	725.99
622.517	744.39
622.715	753.69
622.914	711.84
623.113	748.27
623.312	716.88
623.511	768.81
623.71	737.03
623.909	718.24
624.107	782.56
624.306	719.21
624.505	723.47
624.704	714.56
624.902	731.02
625.101	792.83
625.3	729.86
625.499	698.09
625.697	684.91
625.896	687.04
626.095	741.29
626.293	696.34
626.492	693.82
626.69	722.31
626.889	693.82
627.088	764.35
627.286	693.44
627.485	694.41
627.683	693.24
627.882	738.19
628.08	643.64
628.279	689.95
628.477	747.3
628.676	632.41
628.874	718.62
629.073	671.74
629.271	667.09
629.469	700.61
629.668	697.7
629.866	687.43
630.065	684.53
630.263	725.6
630.461	667.86
630.66	655.08
630.858	717.85
631.056	742.07
631.254	726.76
631.453	649.84
631.651	732.96
631.849	704.29
632.047	712.81
632.245	677.16
632.444	724.63
632.642	722.11
632.84	720.56
633.038	685.88
633.236	667.28
633.434	656.04
633.632	668.64
633.83	659.34
634.028	725.41
634.227	670.58
634.425	744.59
634.623	698.67
634.821	694.6
635.019	689.37
635.216	707.97
635.414	722.89
635.612	723.08
635.81	680.65
636.008	738.39
636.206	690.53
636.404	741.87
636.602	647.91
636.8	662.05
636.997	695.96
637.195	703.32
637.393	700.61
637.591	749.62
637.789	710.1
637.986	698.86
638.184	688.4
638.382	735.48
638.58	725.02
638.777	738.97
638.975	694.41
639.173	685.11
639.37	684.14
639.568	703.32
639.765	711.07
639.963	688.59
640.161	718.62
640.358	731.22
640.556	652.94
640.753	635.51
640.951	662.05
641.148	705.06
641.346	648.88
641.543	649.84
641.741	689.18
641.938	657.01
642.136	684.14
642.333	627.95
642.531	695.18
642.728	740.32
642.925	665.93
643.123	669.8
643.32	684.72
643.517	666.89
643.715	672.13
643.912	653.72
644.109	673.09
644.306	663.21
644.504	619.43
644.701	679.29
644.898	692.86
645.095	643.06
645.293	662.05
645.49	670.58
645.687	660.5
645.884	710.49
646.081	605.28
646.278	616.13
646.475	645.39
646.672	637.06
646.87	652.36
647.067	676.58
647.264	650.62
647.461	589.59
647.658	596.56
647.855	638.8
648.052	632.79
648.249	578.16
648.446	606.83
648.642	607.22
648.839	581.06
649.036	580.87
649.233	576.03
649.43	582.42
649.627	575.25
649.824	594.63
650.021	583.58
650.217	557.62
650.414	567.11
650.611	631.05
650.808	642.48
651.004	599.08
651.201	610.51
651.398	655.08
651.595	600.25
651.791	590.56
651.988	610.13
652.185	545.03
652.381	613.61
652.578	550.06
652.775	589.2
652.971	579.32
653.168	596.56
653.364	624.66
653.561	523.71
653.757	560.14
653.954	584.16
654.15	559.95
654.347	641.71
654.543	560.53
654.74	557.23
654.936	565.95
655.133	578.55
655.329	582.61
655.525	573.51
655.722	608.19
655.918	552.2
656.115	612.84
656.311	507.63
656.507	511.32
656.704	492.33
656.9	503.37
657.096	502.6
657.292	474.5
657.489	547.93
657.685	562.46
657.881	534.56
658.077	509.96
658.273	525.26
658.47	603.15
658.666	552.39
658.862	559.17
659.058	532.05
659.254	592.69
659.45	532.63
659.646	560.14
659.842	541.54
660.038	588.04
660.234	547.74
660.43	553.16
660.626	614.78
660.822	631.05
661.018	609.16
661.214	552.97
661.41	533.4
661.606	582.81
661.802	577.38
661.998	530.3
662.194	507.25
662.39	563.43
662.586	585.13
662.781	582.03
662.977	588.43
663.173	577.58
663.369	548.51
663.564	571.57
663.76	573.7
663.956	523.33
664.152	580.48
664.347	504.53
664.543	502.6
664.739	553.75
664.934	491.75
665.13	510.35
665.326	566.73
665.521	553.94
665.717	530.88
665.912	521.97
666.108	466.95
666.304	517.32
666.499	529.72
666.695	494.07
666.89	537.28
667.086	555.68
667.281	549.68
667.477	568.28
667.672	522.16
667.867	545.8
668.063	540.57
668.258	516.55
668.454	536.7
668.649	626.01
668.844	508.22
669.04	554.91
669.235	504.92
669.43	506.08
669.626	475.28
669.821	518.68
670.016	517.71
670.211	518.29
670.407	483.03
670.602	502.21
670.797	514.61
670.992	545.22
671.187	499.69
671.382	565.37
671.578	543.09
671.773	530.5
671.968	476.44
672.163	534.37
672.358	534.95
672.553	509.38
672.748	515.19
672.943	543.86
673.138	533.01
673.333	566.15
673.528	488.07
673.723	530.3
673.918	512.48
674.113	471.79
674.308	590.17
674.503	542.51
674.698	553.75
674.892	509.57
675.087	514.42
675.282	491.94
675.477	498.14
675.672	537.08
675.867	492.33
676.061	474.12
676.256	450.09
676.451	493.1
676.646	509.38
676.84	473.92
677.035	488.07
677.23	458.42
677.424	503.76
677.619	522.94
677.814	524.68
678.008	540.96
678.203	455.52
678.397	457.26
678.592	486.13
678.787	540.38
678.981	475.67
679.176	517.32
679.37	526.04
679.565	470.24
679.759	449.32
679.954	534.95
680.148	557.23
680.342	532.05
680.537	534.56
680.731	477.41
680.926	491.75
681.12	490.39
681.314	453.77
681.509	505.89
681.703	474.31
681.897	503.37
682.092	484.38
682.286	461.91
682.48	533.98
682.674	541.73
682.869	487.68
683.063	494.85
683.257	567.5
683.451	459.39
683.645	484
683.839	500.27
684.034	492.33
684.228	527.4
684.422	419.09
684.616	439.63
684.81	511.9
685.004	485.93
685.198	481.28
685.392	503.37
685.586	466.17
685.78	492.33
685.974	502.02
686.168	523.91
686.362	548.9
686.556	451.06
686.75	449.12
686.944	438.66
687.138	477.6
687.331	378.99
687.525	381.5
687.719	353.41
687.913	381.31
688.107	381.89
688.301	385.19
688.494	428.59
688.688	358.64
688.882	340.24
689.076	343.72
689.269	380.73
689.463	461.72
689.657	405.72
689.85	378.21
690.044	393.13
690.238	403.98
690.431	372.4
690.625	388.29
690.818	412.5
691.012	433.62
691.205	466.75
691.399	392.74
691.593	435.17
691.786	478.38
691.98	488.84
692.173	513.06
692.366	448.35
692.56	478.96
692.753	491.36
692.947	423.94
693.14	538.25
693.333	521.2
693.527	436.72
693.72	520.61
693.914	466.17
694.107	441.18
694.3	490.58
694.493	473.34
694.687	500.27
694.88	488.45
695.073	540.57
695.266	524.68
695.46	463.65
695.653	507.63
695.846	499.5
696.039	458.03
696.232	527.78
696.425	557.62
696.618	553.94
696.812	529.53
697.005	564.6
697.198	653.72
697.391	565.37
697.584	597.92
697.777	632.02
697.97	604.31
698.163	590.17
698.356	604.31
698.549	691.89
698.742	662.44
698.935	575.25
699.127	636.09
699.32	611.68
699.513	582.81
699.706	604.12
699.899	644.42
700.092	627.76
700.285	649.26
700.477	583.58
700.67	653.33
700.863	691.11
701.056	731.02
701.248	683.94
701.441	712.42
701.634	658.56
701.826	753.69
702.019	640.54
702.212	717.85
702.404	675.42
702.597	667.86
702.79	672.32
702.982	713.59
703.175	737.42
703.367	756.41
703.56	807.17
703.752	827.51
703.945	810.85
704.137	785.66
704.33	796.32
704.522	821.7
704.715	808.33
704.907	845.92
705.1	857.15
705.292	882.53
705.484	832.74
705.677	875.75
705.869	852.89
706.061	892.42
706.254	930.97
706.446	875.75
706.638	900.94
706.831	936.78
707.023	916.25
707.215	1029.01
707.407	943.76
707.599	950.54
707.792	994.52
707.984	1002.27
708.176	1042.96
708.368	986.77
708.56	1012.73
708.752	1005.18
708.944	989.87
709.136	1005.95
709.329	989.87
709.521	1148.36
709.713	1093.53
709.905	1111.35
710.097	1132.47
710.289	1072.21
710.481	1106.51
710.672	1129.17
710.864	1128.4
711.056	1197.76
711.248	1160.37
711.44	1168.89
711.632	1165.99
711.824	1197.96
712.016	1234.96
712.207	1218.69
712.399	1242.52
712.591	1292.31
712.783	1223.72
712.975	1270.03
713.166	1230.7
713.358	1252.2
713.55	1313.43
713.741	1325.63
713.933	1290.76
714.125	1291.73
714.316	1291.54
714.508	1353.92
714.7	1396.35
714.891	1328.93
715.083	1356.63
715.274	1347.53
715.466	1350.63
715.657	1420.38
715.849	1300.45
716.04	1364
716.232	1320.4
716.423	1372.52
716.615	1324.47
716.806	1279.91
716.998	1290.76
717.189	1215.97
717.381	1185.75
717.572	1150.29
717.763	1210.16
717.955	1196.21
718.146	1179.74
718.337	1128.79
718.528	1103.99
718.72	1064.46
718.911	1134.6
719.102	1086.74
719.293	1159.79
719.485	1134.6
719.676	1121.43
719.867	1078.22
720.058	1074.73
720.249	1110.38
720.44	1140.8
720.632	1151.65
720.823	1183.04
721.014	1275.84
721.205	1292.7
721.396	1322.15
721.587	1445.37
721.778	1419.99
721.969	1484.12
722.16	1488.77
722.351	1487.99
722.542	1600.37
722.733	1601.53
722.924	1508.34
723.115	1583.71
723.305	1564.53
723.496	1577.89
723.687	1500.39
723.878	1508.34
724.069	1489.35
724.26	1549.8
724.45	1455.25
724.641	1466.1
724.832	1512.99
725.023	1515.7
725.213	1481.99
725.404	1484.12
725.595	1469.78
725.785	1495.55
725.976	1555.61
726.167	1538.76
726.357	1527.91
726.548	1632.72
726.739	1566.66
726.929	1610.83
727.12	1680
727.31	1666.63
727.501	1634.66
727.691	1599.01
727.882	1647.26
728.072	1662.37
728.263	1689.69
728.453	1706.74
728.644	1730.57
728.834	1716.23
729.024	1714.29
729.215	1676.32
729.405	1726.69
729.596	1775.32
729.786	1800.12
729.976	1786.37
730.167	1805.55
730.357	1783.65
730.547	1807.1
730.737	1820.08
730.928	1887.5
731.118	1877.04
731.308	1841.78
731.498	1855.34
731.688	1966.74
731.879	1963.45
732.069	1971.98
732.259	2022.54
732.449	2059.16
732.639	2126.39
732.829	2097.14
733.019	2143.83
733.209	2198.85
733.399	2196.33
733.589	2265.31
733.779	2299.6
733.969	2263.95
734.159	2343.97
734.349	2362.57
734.539	2429.41
734.729	2425.15
734.919	2427.86
735.109	2466.42
735.299	2422.05
735.488	2459.83
735.678	2464.48
735.868	2474.36
736.058	2442.78
736.248	2419.92
736.437	2423.02
736.627	2442.78
736.817	2573.56
737.007	2482.5
737.196	2530.16
737.386	2536.55
737.576	2492.38
737.765	2549.92
737.955	2541.98
738.144	2648.35
738.334	2598.17
738.524	2572.4
738.713	2583.83
738.903	2561.55
739.092	2661.91
739.282	2632.07
739.471	2646.6
739.661	2619.28
739.85	2674.89
740.04	2693.49
740.229	2726.04
740.419	2749.29
740.608	2723.91
740.797	2715.58
740.987	2781.26
741.176	2827.37
741.365	2716.93
741.555	2721.97
741.744	2807.22
741.933	2754.33
742.123	2784.16
742.312	2804.12
742.501	2840.16
742.69	2868.06
742.88	2777
743.069	2904.87
743.258	2848.88
743.447	2933.93
743.636	2901.77
743.825	2870.58
744.014	2870.38
744.204	2950.4
744.393	2926.18
744.582	2910.1
744.771	2951.76
744.96	2876
745.149	2936.26
745.338	2890.34
745.527	2964.54
745.716	2923.66
745.905	2929.86
746.094	2963.77
746.283	2941.29
746.471	2975.59
746.66	3018.79
746.849	2992.44
747.038	3029.84
747.227	2941.49
747.416	3010.65
747.604	2951.17
747.793	2979.07
747.982	3044.95
748.171	2988.76
748.359	3011.82
748.548	3032.35
748.737	3003.68
748.926	3002.52
749.114	2926.18
749.303	2975.78
749.491	2982.37
749.68	2925.79
749.869	3030.03
750.057	2961.64
750.246	2941.49
750.434	3000.58
750.623	2958.54
750.811	2938.77
751	3013.17
751.188	3000.77
751.377	2998.64
751.565	2910.1
751.754	2946.91
751.942	2939.16
752.131	3018.02
752.319	2890.34
752.507	2894.02
752.696	2978.88
752.884	3020.34
753.072	2946.91
753.261	2970.55
753.449	2926.37
753.637	2967.84
753.825	3035.65
754.014	2962.02
754.202	2972.68
754.39	2990.89
754.578	3015.11
754.766	2954.27
754.955	2902.74
755.143	2983.92
755.331	2931.02
755.519	2955.63
755.707	2921.34
755.895	2919.4
756.083	2977.72
756.271	2897.89
756.459	2891.11
756.647	2941.29
756.835	2923.66
757.023	2900.22
757.211	2908.36
757.399	2862.63
757.587	2871.54
757.775	2819.81
757.963	2857.01
758.151	2853.14
758.339	2836.28
758.526	2826.98
758.714	2861.66
758.902	2770.41
759.09	2721.2
759.278	2542.17
759.465	2344.36
759.653	2004.72
759.841	1834.61
760.028	1567.82
760.216	1367.1
760.404	1277.39
760.591	1055.16
760.779	901.72
760.967	769
761.154	610.9
761.342	681.23
761.529	655.08
761.717	764.93
761.905	696.54
762.092	793.02
762.28	730.25
762.467	723.27
762.655	627.18
762.842	685.88
763.029	707.58
763.217	660.69
763.404	715.52
763.592	730.25
763.779	713.01
763.966	706.81
764.154	780.43
764.341	815.11
764.528	822.28
764.716	861.03
764.903	911.79
765.09	991.23
765.277	1011.57
765.465	1155.52
765.652	1195.82
765.839	1250.27
766.026	1358.38
766.213	1417.86
766.4	1520.35
766.588	1696.85
766.775	1679.42
766.962	1801.28
767.149	1804.77
767.336	1973.33
767.523	1885.76
767.71	2055.48
767.897	2133.56
768.084	2204.28
768.271	2193.04
768.458	2241.48
768.645	2330.02
768.832	2295.53
769.019	2318.98
769.206	2328.08
769.392	2442.97
769.579	2481.14
769.766	2499.36
769.953	2456.73
770.14	2529
770.327	2497.42
770.513	2552.44
770.7	2584.02
770.887	2528.03
771.073	2550.12
771.26	2516.6
771.447	2555.35
771.634	2561.35
771.82	2609.4
772.007	2541.79
772.193	2579.18
772.38	2629.94
772.567	2547.21
772.753	2555.35
772.94	2630.91
773.126	2597.39
773.313	2628.78
773.499	2625.1
773.686	2630.52
773.872	2584.6
774.059	2598.36
774.245	2539.07
774.432	2555.15
774.618	2511.37
774.804	2551.67
774.991	2526.87
775.177	2563.68
775.363	2564.84
775.55	2575.11
775.736	2489.67
775.922	2511.95
776.109	2548.57
776.295	2519.12
776.481	2529.97
776.667	2578.02
776.853	2505.75
777.04	2486.37
777.226	2508.46
777.412	2595.65
777.598	2482.69
777.784	2513.5
777.97	2473.39
778.156	2529.97
778.342	2480.37
778.528	2473.78
778.715	2414.69
778.901	2425.54
779.087	2450.14
779.272	2405.58
779.458	2411.39
779.644	2450.34
779.83	2426.12
780.016	2509.62
780.202	2461.57
780.388	2394.34
780.574	2351.14
780.76	2357.92
780.946	2439.1
781.131	2420.11
781.317	2382.53
781.503	2370.32
781.689	2385.63
781.874	2506.33
782.06	2383.69
782.246	2412.17
782.432	2379.04
782.617	2355.59
782.803	2446.07
782.989	2314.33
783.174	2336.61
783.36	2300.38
783.545	2311.61
783.731	2347.65
783.916	2252.13
784.102	2317.04
784.288	2285.85
784.473	2320.33
784.659	2296.31
784.844	2331.38
785.029	2302.7
785.215	2278.48
785.4	2228.69
785.586	2335.64
785.771	2220.36
785.956	2310.84
786.142	2271.7
786.327	2250.78
786.512	2229.08
786.698	2231.79
786.883	2190.33
787.068	2202.53
787.254	2221.13
787.439	2180.06
787.624	2204.47
787.809	2157.78
787.994	2188.39
788.18	2229.27
788.365	2103.53
788.55	2157.59
788.735	2137.24
788.92	2133.75
789.105	2177.15
789.29	2136.66
789.475	2084.35
789.66	2147.51
789.845	2083.19
790.03	2059.55
790.215	2149.84
790.4	2144.6
790.585	2154.49
790.77	2113.8
790.955	2026.22
791.14	2105.85
791.325	2143.83
791.51	2035.72
791.695	2085.12
791.879	2069.82
792.064	2015.57
792.249	2153.71
792.434	2048.31
792.618	2051.61
792.803	2077.18
792.988	2063.81
793.173	2064.78
793.357	2101.98
793.542	1999.68
793.727	2045.79
793.911	2084.35
794.096	2053.35
794.281	2094.42
794.465	2170.95
794.65	2078.54
794.834	2110.7
795.019	2111.28
795.203	2127.17
795.388	2134.53
795.572	2138.02
795.757	2084.93
795.941	2136.66
796.126	2089
796.31	2062.26
796.494	2109.34
796.679	2098.69
796.863	2018.28
797.048	2117.67
797.232	2109.54
797.416	2126.97
797.601	2096.94
797.785	2157.2
797.969	2144.22
798.153	2060.52
798.338	2118.25
798.522	2134.14
798.706	2145.19
798.89	2135.89
799.074	2258.33
799.258	2167.47
799.443	2147.7
799.627	2123.1
799.811	2198.27
799.995	2108.18
800.179	2085.71
800.363	2100.43
800.547	2158.17
800.731	2142.09
800.915	2032.23
801.099	2067.88
801.283	2086.67
801.467	2084.54
801.651	2082.99
801.835	2099.07
802.019	2152.74
802.202	2076.99
802.386	2065.17
802.57	2073.5
802.754	2091.9
802.938	2026.81
803.121	2076.02
803.305	2104.3
803.489	2088.81
803.673	2097.91
803.856	2073.31
804.04	2095.2
804.224	2122.9
804.407	2114.77
804.591	2074.66
804.775	2064.01
804.958	2092.87
805.142	2221.91
805.326	2071.17
805.509	2121.94
805.693	2119.22
805.876	2125.04
806.06	2121.16
806.243	2143.05
806.427	2176.77
806.61	2184.52
806.794	2074.86
806.977	2114.19
807.16	2105.85
807.344	2155.65
807.527	2109.15
807.71	2089.97
807.894	2121.94
808.077	2107.4
808.26	2076.79
808.444	2047.15
808.627	2127.36
808.81	2077.76
808.993	2007.82
809.177	2011.11
809.36	2085.71
809.543	2055.29
809.726	1992.9
809.909	1957.64
810.092	1966.94
810.276	1992.71
810.459	1999.68
810.642	1943.88
810.825	1937.49
811.008	1954.34
811.191	1852.63
811.374	1861.73
811.557	1911.14
811.74	1946.4
811.923	1874.71
812.106	1832.67
812.289	1790.24
812.472	1811.94
812.654	1802.45
812.837	1788.88
813.02	1748.58
813.203	1731.73
813.386	1648.61
813.569	1661.4
813.751	1595.33
813.934	1621.87
814.117	1629.43
814.3	1555.61
814.482	1546.7
814.665	1509.5
814.848	1499.43
815.03	1404.3
815.213	1442.46
815.396	1423.09
815.578	1401.39
815.761	1349.27
815.943	1420.76
816.126	1313.43
816.309	1336.1
816.491	1262.09
816.674	1236.51
816.856	1289.79
817.039	1282.04
817.221	1320.02
817.403	1253.17
817.586	1286.5
817.768	1315.17
817.951	1255.89
818.133	1261.12
818.315	1239.42
818.498	1313.23
818.68	1361.48
818.862	1336.48
819.045	1346.37
819.227	1321.76
819.409	1297.35
819.591	1342.49
819.774	1313.82
819.956	1301.22
820.138	1386.08
820.32	1339.58
820.502	1368.45
820.684	1432.39
820.866	1435.49
821.048	1468.43
821.231	1506.79
821.413	1507.56
821.595	1454.09
821.777	1452.15
821.959	1485.67
822.141	1526.94
822.323	1431.23
822.505	1345.4
822.686	1315.17
822.868	1278.94
823.05	1178.19
823.232	1181.68
823.414	1108.25
823.596	1155.52
823.778	1144.09
823.96	1174.9
824.141	1165.79
824.323	1228.95
824.505	1246.78
824.687	1304.52
824.868	1335.13
825.05	1409.72
825.232	1419.8
825.413	1505.04
825.595	1460.48
825.777	1392.67
825.958	1457.58
826.14	1441.5
826.321	1450.02
826.503	1433.75
826.685	1446.73
826.866	1483.34
827.048	1492.06
827.229	1423.86
827.411	1381.63
827.592	1327.38
827.773	1353.53
827.955	1321.76
828.136	1304.52
828.318	1278.75
828.499	1318.08
828.68	1283.01
828.862	1314.4
829.043	1329.32
829.224	1299.48
829.406	1238.64
829.587	1296.96
829.768	1231.47
829.949	1302.19
830.131	1307.81
830.312	1321.37
830.493	1308
830.674	1311.49
830.855	1279.52
831.036	1292.12
831.218	1329.9
831.399	1379.3
831.58	1311.68
831.761	1302.19
831.942	1312.27
832.123	1309.36
832.304	1239.61
832.485	1268.87
832.666	1297.54
832.847	1320.98
833.028	1312.07
833.209	1316.14
833.389	1289.79
833.57	1240.58
833.751	1272.74
833.932	1330.67
834.113	1313.23
834.294	1268.67
834.475	1306.65
834.655	1353.34
834.836	1343.46
835.017	1364.77
835.198	1288.63
835.378	1270.8
835.559	1370.78
835.74	1304.52
835.92	1310.13
836.101	1267.9
836.281	1342.49
836.462	1318.66
836.643	1385.5
836.823	1368.26
837.004	1343.27
837.184	1426.38
837.365	1384.34
837.545	1386.67
837.726	1314.4
837.906	1425.8
838.087	1368.84
838.267	1350.24
838.448	1320.98
838.628	1345.98
838.808	1323.31
838.989	1427.93
839.169	1311.68
839.349	1370
839.53	1379.3
839.71	1380.66
839.89	1305.29
840.07	1395.96
840.251	1307.42
840.431	1409.33
840.611	1356.44
840.791	1315.75
840.971	1358.77
841.151	1319.24
841.332	1356.05
841.512	1366.32
841.692	1300.84
841.872	1347.72
842.052	1342.68
842.232	1350.63
842.412	1287.47
842.592	1339.2
842.772	1333.58
842.952	1374.46
843.132	1318.85
843.312	1265.38
843.492	1310.33
843.672	1343.07
843.851	1258.99
844.031	1310.91
844.211	1323.7
844.391	1282.43
844.571	1323.31
844.751	1338.62
844.93	1302.19
845.11	1258.21
845.29	1329.9
845.47	1324.28
845.649	1293.28
845.829	1323.5
846.009	1288.05
846.188	1309.94
846.368	1328.15
846.547	1281.85
846.727	1339.2
846.907	1278.55
847.086	1332.03
847.266	1335.71
847.445	1285.92
847.625	1257.63
847.804	1299.48
847.984	1275.84
848.163	1270.61
848.343	1261.89
848.522	1281.46
848.701	1297.54
848.881	1227.6
849.06	1277.2
849.239	1289.79
849.419	1271
849.598	1215.78
849.777	1209.97
849.957	1209.58
850.136	1162.89
850.315	1163.27
850.494	1145.45
850.674	1172.77
850.853	1212.49
851.032	1188.66
851.211	1248.52
851.39	1207.06
851.569	1155.14
851.748	1177.03
851.927	1229.54
852.107	1179.36
852.286	1151.65
852.465	1144.48
852.644	1212.29
852.823	1202.22
853.002	1176.84
853.181	1165.21
853.359	1193.11
853.538	1114.64
853.717	1186.14
853.896	1102.24
854.075	1061.56
854.254	1055.74
854.433	960.81
854.611	1017.77
854.79	978.05
854.969	1060.01
855.148	1089.46
855.327	1012.93
855.505	1061.94
855.684	1065.43
855.863	1088.1
856.041	1023.58
856.22	1087.52
856.399	1077.44
856.577	1139.25
856.756	1137.12
856.934	1208.81
857.113	1218.88
857.291	1131.31
857.47	1113.48
857.648	1125.69
857.827	1108.83
858.005	1157.46
858.184	1115.42
858.362	1228.37
858.541	1137.7
858.719	1138.67
858.898	1133.44
859.076	1143.12
859.254	1164.44
859.433	1108.25
859.611	1095.46
859.789	1057.49
859.967	1140.02
860.146	1174.51
860.324	1083.64
860.502	1110.77
860.68	1060.2
860.859	1057.1
861.037	1087.13
861.215	1112.51
861.393	1087.71
861.571	1077.83
861.749	1077.64
861.927	1115.03
862.105	1075.89
862.283	1056.13
862.461	1078.03
862.639	1060.2
862.817	1051.29
862.995	1089.26
863.173	1073.96
863.351	1071.44
863.529	1079.96
863.707	1091.2
863.885	1081.9
864.063	987.74
864.241	1006.53
864.418	1099.92
864.596	1041.99
864.774	1014.67
864.952	1031.14
865.129	1043.15
865.307	992.39
865.485	970.69
865.663	1052.45
865.84	958.87
866.018	993.94
866.196	867.81
866.373	926.32
866.551	882.53
866.728	837.2
866.906	873.43
867.084	894.16
867.261	964.49
867.439	931.55
867.616	950.35
867.794	966.81
867.971	970.69
868.149	986.38
868.326	1009.63
868.503	1001.69
868.681	1005.56
868.858	948.41
869.035	936.2
869.213	1017
869.39	960.61
869.567	1028.81
869.745	944.92
869.922	957.9
870.099	1005.76
870.276	1020.68
870.454	985.61
870.631	974.95
870.808	965.85
870.985	969.91
871.162	1019.32
871.339	982.31
871.517	933.49
871.694	935.82
871.871	930
872.048	948.22
872.225	945.31
872.402	965.65
872.579	917.41
872.756	960.23
872.933	873.43
873.11	923.61
873.287	933.3
873.463	940.08
873.64	921.87
873.817	926.13
873.994	946.47
874.171	878.66
874.348	934.07
874.524	831.77
874.701	903.07
874.878	819.76
875.055	889.12
875.231	908.11
875.408	917.6
875.585	875.56
875.762	892.8
875.938	894.35
876.115	866.65
876.291	894.74
876.468	865.1
876.645	833.71
876.821	841.27
876.998	867.23
877.174	870.13
877.351	874.2
877.527	853.47
877.704	921.28
877.88	875.56
878.057	822.47
878.233	904.23
878.409	856.77
878.586	880.4
878.762	847.47
878.938	844.37
879.115	797.87
879.291	822.47
879.467	784.69
879.644	828.67
879.82	866.45
879.996	807.17
880.172	762.99
880.349	836.81
880.525	836.23
880.701	773.07
880.877	784.5
881.053	838.94
881.229	826.15
881.405	819.76
881.581	771.52
881.757	812.4
881.933	828.09
882.109	869.55
882.285	808.91
882.461	756.99
882.637	809.69
882.813	776.17
882.989	800.19
883.165	836.04
883.341	765.71
883.517	820.54
883.693	828.67
883.869	847.47
884.044	766.67
884.22	834.87
884.396	864.13
884.572	831.97
884.747	847.85
884.923	820.73
885.099	814.92
885.275	872.65
885.45	804.45
885.626	805.42
885.801	771.71
885.977	774.62
886.153	737.42
886.328	839.52
886.504	795.74
886.679	816.66
886.855	772.1
887.03	813.37
887.206	820.73
887.381	824.8
887.557	809.88
887.732	813.37
887.908	821.89
888.083	854.83
888.258	792.44
888.434	775.97
888.609	778.69
888.784	820.34
888.96	775.39
889.135	785.08
889.31	762.61
889.485	808.91
889.661	784.89
889.836	828.09
890.011	813.95
890.186	784.3
890.361	769.39
890.537	807.36
890.712	822.28
890.887	805.81
891.062	823.64
891.237	861.42
891.412	786.24
891.587	803.68
891.762	829.84
891.937	824.6
892.112	756.79
892.287	773.65
892.462	727.15
892.637	712.62
892.812	703.9
892.987	727.92
893.161	686.66
893.336	741.1
893.511	729.47
893.686	723.47
893.861	746.33
894.035	728.31
894.21	732.19
894.385	688.21
894.56	737.81
894.734	628.53
894.909	647.13
895.084	649.46
895.258	630.28
895.433	637.64
895.608	638.41
895.782	607.61
895.957	647.91
896.131	606.06
896.306	549.68
896.48	537.47
896.655	564.21
896.829	527.78
897.004	523.91
897.178	557.23
897.353	533.6
897.527	554.13
897.701	545.41
897.876	471.98
898.05	556.26
898.224	546.77
898.399	556.65
898.573	534.95
898.747	464.62
898.921	523.13
899.096	426.45
899.27	441.18
899.444	459.78
899.618	468.3
899.792	456.68
899.967	495.04
900.141	502.02
900.315	440.21
900.489	439.43
900.663	468.3
900.837	468.88
901.011	424.71
901.185	500.27
901.359	477.8
901.533	484.97
901.707	472.76
901.881	467.14
902.055	414.44
902.229	457.07
902.403	525.46
902.576	469.66
902.75	446.6
902.924	588.62
903.098	514.8
903.272	543.48
903.446	573.12
903.619	564.6
903.793	588.62
903.967	567.7
904.14	603.93
904.314	607.41
904.488	560.33
904.661	608.38
904.835	558.78
905.009	617.1
905.182	641.32
905.356	583
905.529	584.75
905.703	564.4
905.876	551.03
906.05	510.54
906.223	546.96
906.397	454.35
906.57	469.27
906.744	436.72
906.917	457.45
907.09	477.41
907.264	456.48
907.437	442.34
907.61	390.03
907.784	420.84
907.957	427.23
908.13	395.07
908.304	439.43
908.477	392.35
908.65	404.75
908.823	383.44
908.996	453.77
909.17	413.67
909.343	415.99
909.516	403.98
909.689	422.19
909.862	392.74
910.035	396.42
910.208	388.48
910.381	380.73
910.554	473.34
910.727	382.86
910.9	421.61
911.073	366.59
911.246	465.01
911.419	461.33
911.592	427.04
911.765	381.7
911.938	406.5
912.11	415.8
912.283	396.04
912.456	442.92
912.629	405.53
912.802	397.78
912.974	330.55
913.147	335.59
913.32	283.86
913.493	317.37
913.665	361.16
913.838	331.52
914.01	327.45
914.183	365.42
914.356	324.54
914.528	386.54
914.701	416.38
914.873	384.99
915.046	354.57
915.218	327.64
915.391	287.92
915.563	278.24
915.736	339.27
915.908	359.61
916.081	353.02
916.253	310.4
916.425	342.37
916.598	356.32
916.77	339.46
916.942	331.52
917.115	266.61
917.287	349.15
917.459	331.71
917.632	291.02
917.804	240.65
917.976	306.14
918.148	331.32
918.32	326.87
918.493	348.18
918.665	413.47
918.837	317.57
919.009	421.61
919.181	382.67
919.353	367.75
919.525	366.97
919.697	340.24
919.869	352.64
920.041	386.93
920.213	495.04
920.385	404.37
920.557	368.52
920.729	404.56
920.901	377.63
921.073	369.69
921.244	359.03
921.416	423.94
921.588	368.52
921.76	349.15
921.932	396.81
922.103	382.28
922.275	364.84
922.447	342.17
922.619	316.21
922.79	335.39
922.962	343.92
923.134	377.24
923.305	325.51
923.477	297.42
923.648	319.31
923.82	317.96
923.991	263.71
924.163	291.22
924.335	319.12
924.506	291.22
924.677	370.07
924.849	287.15
925.02	307.88
925.192	321.83
925.363	313.89
925.535	314.47
925.706	303.04
925.877	355.93
926.049	300.13
926.22	323.96
926.391	321.44
926.562	356.12
926.734	303.23
926.905	349.34
927.076	266.42
927.247	311.56
927.419	255.96
927.59	256.73
927.761	271.65
927.932	247.82
928.103	273.97
928.274	244.53
928.445	226.51
928.616	229.99
928.787	210.43
928.958	256.73
929.129	234.84
929.3	180.59
929.471	184.27
929.642	152.11
929.813	113.94
929.984	190.66
930.155	104.25
930.326	180.39
930.496	161.02
930.667	84.1
930.838	131.18
931.009	98.25
931.18	127.5
931.35	105.03
931.521	150.36
931.692	74.8
931.863	29.66
932.033	125.56
932.204	108.13
932.374	88.56
932.545	48.07
932.716	112.78
932.886	92.82
933.057	7.38
933.227	37.99
933.398	131.96
933.568	58.14
933.739	-12.19
933.909	23.46
934.08	77.32
934.25	-11.8
934.421	16.29
934.591	44.58
934.761	23.65
934.932	-25.95
935.102	29.66
935.272	24.62
935.443	25.59
935.613	23.07
935.783	52.33
935.953	14.74
936.123	168.58
936.294	4.28
936.464	31.02
936.634	8.15
936.804	3.89
936.974	-6.18
937.144	27.92
937.314	24.04
937.484	7.18
937.655	-5.02
937.825	62.98
937.995	0.02
938.165	37.02
938.334	-2.89
938.504	54.85
938.674	20.94
938.844	47.1
939.014	96.7
939.184	78.68
939.354	101.93
939.524	105.22
939.694	54.27
939.863	45.93
940.033	119.36
940.203	121.69
940.373	79.84
940.542	83.33
940.712	84.49
940.882	101.93
941.051	121.3
941.221	98.63
941.391	118.98
941.56	60.66
941.73	11.83
941.899	177.29
942.069	36.44
942.238	64.92
942.408	33.92
942.577	114.71
942.747	43.03
942.916	32.95
943.086	-2.5
943.255	94.18
943.425	86.81
943.594	25.4
943.763	-23.04
943.933	20.17
944.102	-18.39
944.271	39.54
944.441	76.35
944.61	35.28
944.779	32.18
944.948	121.5
945.117	18.23
945.287	29.66
945.456	-22.85
945.625	49.03
945.794	38.96
945.963	12.42
946.132	56.2
946.301	27.14
946.47	50.2
946.639	-4.83
946.808	30.05
946.977	63.18
947.146	91.08
947.315	25.2
947.484	70.35
947.653	39.93
947.822	20.94
947.991	18.42
948.16	120.91
948.329	111.03
948.498	49.23
948.666	33.53
948.835	65.12
949.004	2.92
949.173	25.78
949.341	57.17
949.51	82.55
949.679	101.93
949.847	69.57
950.016	97.47
950.185	100.57
950.353	2.15
950.522	42.06
950.69	74.22
950.859	30.43
951.028	95.53
951.196	65.7
951.365	35.28
951.533	71.7
951.701	81.78
951.87	79.84
952.038	23.46
952.207	39.73
952.375	124.6
952.543	7.57
952.712	26.17
952.88	29.85
953.048	103.67
953.217	58.72
953.385	50.97
953.553	87.98
953.721	14.16
953.89	39.73
954.058	25.59
954.226	43.42
954.394	79.84
954.562	-3.47
954.73	25.98
954.898	35.67
955.067	86.62
955.235	24.62
955.403	84.3
955.571	138.35
955.739	60.66
955.907	13
956.075	1.76
956.243	11.25
956.41	68.6
956.578	-7.54
956.746	9.32
956.914	16.68
957.082	47.48
957.25	59.88
957.418	-11.61
957.585	73.64
957.753	75.58
957.921	28.11
958.089	52.91
958.256	82.55
958.424	82.16
958.592	81.39
958.759	42.45
958.927	71.12
959.095	39.73
959.262	67.63
959.43	59.69
959.597	20.55
959.765	90.88
959.932	3.7
960.1	69.96
960.267	49.62
960.435	60.08
960.602	75.97
960.77	52.33
960.937	6.8
961.104	86.81
961.272	4.08
961.439	33.92
961.606	51.36
961.774	82.36
961.941	49.23
962.108	54.07
962.275	42.45
962.443	94.37
962.61	73.06
962.777	147.85
962.944	92.63
963.111	69.57
963.278	98.63
963.446	64.34
963.613	81.58
963.78	80.03
963.947	93.6
964.114	51.75
964.281	149.78
964.448	67.05
964.615	48.65
964.782	92.24
964.949	97.08
965.116	67.05
965.282	99.02
965.449	70.15
965.616	12.22
965.783	71.32
965.95	63.95
966.117	23.85
966.283	63.18
966.45	85.26
966.617	78.48
966.784	99.99
966.95	73.64
967.117	98.05
967.284	46.52
967.45	31.4
967.617	140.48
967.784	98.83
967.95	121.69
968.117	87.4
968.283	114.33
968.45	175.74
968.616	100.57
968.783	120.33
968.949	107.16
969.116	112.2
969.282	100.57
969.449	93.98
969.615	80.23
969.781	17.45
969.948	70.15
970.114	44.97
970.28	144.94
970.447	80.23
970.613	120.14
970.779	112.97
970.945	94.95
971.112	76.74
971.278	81.58
971.444	86.81
971.61	117.43
971.776	63.95
971.942	74.42
972.108	99.02
972.275	67.83
972.441	89.33
972.607	168.19
972.773	64.73
972.939	110.84
973.105	89.53
973.271	41.67
973.437	56.78
973.602	52.13
973.768	117.04
973.934	65.12
974.1	85.26
974.266	15.13
974.432	68.02
974.598	60.08
974.763	96.11
974.929	67.05
975.095	133.31
975.261	59.69
975.426	30.82
975.592	72.09
975.758	137.77
975.923	33.34
976.089	40.9
976.255	93.21
976.42	65.5
976.586	93.21
976.751	85.65
976.917	165.28
977.082	103.67
977.248	27.72
977.413	11.06
977.579	65.7
977.744	75.77
977.91	40.7
978.075	69.57
978.24	95.34
978.406	66.28
978.571	56.78
978.736	66.28
978.902	78.29
979.067	40.9
979.232	26.37
979.397	48.65
979.563	109.87
979.728	47.48
979.893	62.02
980.058	63.95
980.223	85.26
980.388	86.23
980.554	66.47
980.719	46.9
980.884	69.96
981.049	102.31
981.214	55.04
981.379	88.36
981.544	59.5
981.709	72.09
981.874	67.25
982.039	36.05
982.204	71.32
982.368	78.29
982.533	32.18
982.698	77.13
982.863	120.14
983.028	73.06
983.193	60.08
983.357	89.33
983.522	59.88
983.687	67.25
983.852	49.03
984.016	58.72
984.181	78.87
984.346	75.58
984.51	79.45
984.675	51.75
984.839	75.97
985.004	76.16
985.168	126.15
985.333	84.1
985.498	57.17
985.662	85.07
985.827	81
985.991	81.97
986.155	36.44
986.32	68.22
986.484	116.26
986.649	71.51
986.813	15.9
986.977	101.73
987.142	111.23
987.306	34.31
987.47	32.18
987.634	54.65
987.799	93.79
987.963	70.73
988.127	73.45
988.291	148.43
988.455	72.48
988.62	76.93
988.784	89.53
988.948	101.93
989.112	37.99
989.276	86.04
989.44	47.68
989.604	34.12
989.768	58.72
989.932	130.99
990.096	25.01
990.26	42.06
990.424	15.52
990.588	30.43
990.752	119.95
990.915	100.57
991.079	34.31
991.243	43.42
991.407	76.93
991.571	59.5
991.734	86.23
991.898	53.49
992.062	135.83
992.226	66.28
992.389	47.29
992.553	21.33
992.717	20.36
992.88	45.74
993.044	48.07
993.207	46.13
993.371	90.5
993.535	70.15
993.698	43.22
993.862	98.83
994.025	112.39
994.189	80.61
994.352	61.24
994.515	69.96
994.679	105.03
994.842	61.82
995.006	103.09
995.169	31.4
995.332	21.13
995.496	80.42
995.659	21.33
995.822	48.26
995.985	36.44
996.149	85.07
996.312	60.27
996.475	97.66
996.638	52.72
996.801	112.2
996.964	117.62
997.128	30.24
997.291	62.98
997.454	50.58
997.617	17.84
997.78	119.95
997.943	41.09
998.106	95.15
998.269	32.95
998.432	41.28
998.595	49.03
998.758	16.29
998.92	1.95
999.083	20.36
999.246	32.57
999.409	-0.37
999.572	-24.59
999.735	33.15
999.897	58.53
1000.06	16.68
1000.223	40.9
1000.386	55.04
1000.548	71.51
1000.711	54.27
1000.874	47.29
1001.036	-1.15
1001.199	88.36
1001.361	15.9
1001.524	35.08
1001.687	63.37
1001.849	34.31
1002.012	63.37
1002.174	53.1
1002.337	57.37
1002.499	52.13
1002.661	86.04
1002.824	28.3
1002.986	8.15
1003.149	41.09
1003.311	13
1003.473	98.05
1003.636	13.38
1003.798	71.7
1003.96	73.64
1004.123	38.96
1004.285	25.78
1004.447	63.18
1004.609	28.5
1004.771	128.28
1004.933	10.09
1005.096	9.9
1005.258	-7.15
1005.42	7.18
1005.582	62.79
1005.744	25.4
1005.906	10.28
1006.068	32.18
1006.23	3.5
1006.392	-24.78
1006.554	38.57
1006.716	81
1006.878	64.92
1007.04	-14.71
1007.202	23.46
1007.363	39.73
1007.525	47.68
1007.687	54.65
1007.849	71.51
1008.011	2.34
1008.172	-2.31
1008.334	-19.16
1008.496	51.55
1008.658	-31.37
1008.819	5.25
1008.981	-12.96
1009.143	-9.86
1009.304	1.18
1009.466	23.27
1009.627	81.39
1009.789	118.01
1009.95	44.77
1010.112	2.53
1010.273	49.62
1010.435	-3.67
1010.596	26.56
1010.758	5.63
1010.919	31.02
1011.081	-5.41
1011.242	16.87
1011.403	45.74
1011.565	27.92
1011.726	42.25
1011.887	4.67
1012.049	-3.08
1012.21	65.12
1012.371	89.53
1012.532	-58.3
1012.693	24.62
1012.855	-0.57
1013.016	35.08
1013.177	76.55
1013.338	35.08
1013.499	93.6
1013.66	28.88
1013.821	48.65
1013.982	33.34
1014.143	27.92
1014.304	-3.28
1014.465	31.6
1014.626	34.31
1014.787	-1.15
1014.948	123.24
1015.109	-25.17
1015.27	58.72
1015.431	33.34
1015.592	-0.37
1015.752	81.78
1015.913	20.17
1016.074	32.37
1016.235	12.22
1016.395	26.95
1016.556	22.49
1016.717	31.02
1016.877	48.07
1017.038	-22.85
1017.199	49.23
1017.359	43.03
1017.52	3.7
1017.681	2.53
1017.841	40.32
1018.002	13
1018.162	14.93
1018.323	69.96
1018.483	22.3
1018.644	-8.31
1018.804	-4.83
1018.964	-12.77
1019.125	4.67
1019.285	52.13
1019.446	-11.22
1019.606	2.15
1019.766	-16.06
1019.926	51.36
1020.087	47.1
1020.247	-35.44
1020.407	-0.57
1020.567	34.5
1020.728	6.22
1020.888	-10.83
1021.048	-8.31
1021.208	6.02
1021.368	8.93
1021.528	69.77
1021.688	60.08
1021.848	17.26
1022.008	6.6
1022.168	-10.45
1022.328	8.15
1022.488	28.88
1022.648	14.55
1022.808	7.77
1022.968	39.93
1023.128	19.97
1023.288	-3.86
1023.448	18.81
1023.608	43.8
1023.767	41.48
1023.927	-17.81
1024.087	-15.68
1024.247	-35.05
1024.406	4.08
1024.566	-24.98
1024.726	-5.6
1024.885	1.18
1025.045	22.68
1025.205	7.57
1025.364	16.87
1025.524	24.43
1025.683	8.15
1025.843	14.93
1026.003	32.37
1026.162	59.5
1026.321	17.45
1026.481	14.55
1026.64	-22.46
1026.8	22.49
1026.959	8.35
1027.119	11.45
1027.278	6.6
1027.437	-28.08
1027.597	10.67
1027.756	2.53
1027.915	42.45
1028.074	40.32
1028.234	4.28
1028.393	44.38
1028.552	8.54
1028.711	-55.78
1028.87	33.53
1029.03	-33.11
1029.189	-30.79
1029.348	-27.5
1029.507	-15.29
1029.666	-4.44
1029.825	-28.46
1029.984	-1.15
1030.143	4.47
1030.302	-3.86
1030.461	-28.27
1030.62	13.77
1030.779	-0.37
1030.938	-34.08
1031.097	-10.06
1031.255	64.53
1031.414	57.75
1031.573	32.37
1031.732	-56.36
1031.891	-5.41
1032.049	47.29
1032.208	35.67
1032.367	4.28
1032.525	-3.67
1032.684	10.28
1032.843	12.61
1033.001	-43
1033.16	140.68
1033.319	45.55
1033.477	22.68
1033.636	10.09
1033.794	-45.9
1033.953	37.22
1034.111	28.69
1034.27	-38.35
1034.428	33.34
1034.587	-21.49
1034.745	6.8
1034.903	5.83
1035.062	45.55
1035.22	-46.48
1035.378	39.15
1035.537	-64.89
1035.695	19.58
1035.853	-12
1036.011	41.28
1036.17	46.71
1036.328	-62.95
1036.486	-1.73
1036.644	-5.6
1036.802	-68.18
1036.96	-27.3
1037.119	-10.83
1037.277	-13.16
1037.435	-21.1
1037.593	-29.82
1037.751	4.86
1037.909	25.59
1038.067	25.59
