Data from oakcork_FLMT105791__235__17-33-06-045.txt Node

Date: Mon Mar 20 17:33:06 GMT 2023
User: antho
Spectrometer: FLMT10579
Trigger mode: 0
Integration Time (sec): 1.000000E-1
Scans to average: 10
Electric dark correction enabled: true
Nonlinearity correction enabled: false
Boxcar width: 0
XAxis mode: Wavelengths
Number of Pixels in Spectrum: 3648
>>>>>Begin Spectral Data<<<<<
345.248	-161.81
345.464	-161.81
345.681	-161.81
345.898	-187
346.114	-152.51
346.331	-46.14
346.548	50.92
346.764	-16.11
346.981	-7.01
347.197	-2.94
347.414	-1.97
347.631	-5.26
347.847	71.07
348.064	3.84
348.28	8.49
348.497	-50.21
348.713	-4.68
348.93	17.79
349.146	9.66
349.363	4.62
349.579	33.68
349.796	-9.72
350.012	-20.76
350.229	21.86
350.445	8.88
350.661	-1.19
350.878	18.95
351.094	19.54
351.311	1.13
351.527	33.29
351.743	-16.69
351.96	23.6
352.176	38.91
352.392	2.49
352.609	46.08
352.825	-18.24
353.041	-6.43
353.257	-2.36
353.474	11.21
353.69	20.12
353.906	4.81
354.122	-35.68
354.339	53.83
354.555	21.28
354.771	-1
354.987	40.85
355.203	58.09
355.42	14.11
355.636	-25.8
355.852	-8.75
356.068	20.12
356.284	-31.81
356.5	59.45
356.716	23.99
356.932	17.6
357.148	41.24
357.364	11.21
357.58	30
357.796	39.1
358.012	46.47
358.228	18.95
358.444	-47.89
358.66	49.37
358.876	18.57
359.092	0.36
359.308	17.21
359.524	22.64
359.74	-16.5
359.956	-1.97
360.172	19.73
360.388	46.08
360.604	1.32
360.819	95.87
361.035	38.14
361.251	50.34
361.467	-15.14
361.683	35.42
361.898	-10.11
362.114	34.84
362.33	29.42
362.546	61.39
362.762	18.95
362.977	38.91
363.193	18.37
363.409	60.22
363.624	-0.03
363.84	17.21
364.056	30.58
364.271	34.26
364.487	42.01
364.703	7.52
364.918	-8.75
365.134	12.17
365.35	3.26
365.565	87.74
365.781	18.76
365.996	36.97
366.212	76.5
366.427	20.12
366.643	-0.42
366.858	23.99
367.074	22.64
367.289	49.76
367.505	82.89
367.72	-10.69
367.936	18.18
368.151	47.05
368.367	30
368.582	8.49
368.798	17.21
369.013	75.72
369.228	27.48
369.444	43.95
369.659	75.14
369.874	20.12
370.09	79.4
370.305	-25.61
370.52	-9.72
370.736	57.7
370.951	-6.62
371.166	79.21
371.381	97.04
371.597	28.84
371.812	23.8
372.027	6.36
372.242	37.55
372.458	77.08
372.673	26.12
372.888	42.01
373.103	62.74
373.318	102.27
373.533	49.18
373.749	26.7
373.964	-4.68
374.179	66.23
374.394	3.26
374.609	58.48
374.824	6.36
375.039	76.69
375.254	28.64
375.469	67
375.684	37.17
375.899	52.47
376.114	50.92
376.329	58.29
376.544	67.39
376.759	77.47
376.974	36.97
377.189	31.55
377.404	38.72
377.619	55.57
377.834	15.08
378.049	18.76
378.264	2.87
378.478	48.4
378.693	19.34
378.908	57.7
379.123	36.2
379.338	81.73
379.553	31.55
379.767	64.1
379.982	77.08
380.197	63.32
380.412	-2.74
380.626	56.35
380.841	116.02
381.056	49.37
381.271	74.56
381.485	23.02
381.7	-11.66
381.915	48.99
382.129	18.95
382.344	52.28
382.559	50.54
382.773	72.62
382.988	26.32
383.202	39.1
383.417	-4.1
383.632	153.22
383.846	34.26
384.061	36.78
384.275	26.51
384.49	52.67
384.704	68.94
384.919	50.73
385.133	57.9
385.348	42.4
385.562	28.25
385.777	95.1
385.991	65.45
386.206	17.79
386.42	17.21
386.634	68.17
386.849	42.01
387.063	45.3
387.277	22.44
387.492	26.9
387.706	14.69
387.92	19.92
388.135	76.3
388.349	59.45
388.563	77.27
388.778	49.37
388.992	60.03
389.206	85.8
389.42	118.93
389.635	69.14
389.849	76.89
390.063	84.64
390.277	71.27
390.491	91.8
390.706	81.15
390.92	72.04
391.134	81.34
391.348	99.55
391.562	48.99
391.776	53.25
391.99	62.74
392.205	115.83
392.419	43.37
392.633	62.55
392.847	112.92
393.061	51.7
393.275	129
393.489	62.16
393.703	62.55
393.917	84.44
394.131	28.45
394.345	86.57
394.559	112.34
394.773	46.27
394.986	86.96
395.2	76.5
395.414	107.69
395.628	42.98
395.842	91.8
396.056	71.46
396.27	16.05
396.484	75.34
396.697	81.34
396.911	106.72
397.125	49.37
397.339	111.76
397.553	86.96
397.766	103.23
397.98	110.98
398.194	124.35
398.408	94.13
398.621	107.3
398.835	119.7
399.049	89.87
399.262	156.13
399.476	131.33
399.69	120.87
399.903	164.07
400.117	114.86
400.331	158.65
400.544	117.57
400.758	224.52
400.971	144.31
401.185	158.65
401.398	95.1
401.612	172.02
401.826	133.65
402.039	146.25
402.253	120.48
402.466	127.07
402.68	107.69
402.893	135.01
403.106	140.43
403.32	123
403.533	161.55
403.747	133.27
403.96	166.98
404.174	152.25
404.387	82.12
404.6	141.98
404.814	150.9
405.027	127.26
405.24	137.92
405.454	145.28
405.667	168.14
405.88	72.43
406.094	145.67
406.307	176.47
406.52	146.25
406.733	104.59
406.947	76.3
407.16	199.91
407.373	172.21
407.586	121.06
407.799	130.75
408.012	193.91
408.226	150.12
408.439	194.68
408.652	114.47
408.865	159.23
409.078	184.03
409.291	165.62
409.504	107.88
409.717	180.73
409.93	151.28
410.143	147.8
410.357	109.05
410.57	92.97
410.783	140.63
410.996	157.1
411.209	161.75
411.421	173.95
411.634	167.95
411.847	146.25
412.06	148.57
412.273	183.06
412.486	184.22
412.699	248.74
412.912	168.92
413.125	185.97
413.338	180.15
413.55	204.37
413.763	160.58
413.976	206.5
414.189	164.85
414.402	157.87
414.615	233.63
414.827	157.29
415.04	217.74
415.253	215.22
415.466	194.68
415.678	240.99
415.891	191.58
416.104	188.68
416.316	189.07
416.529	178.22
416.742	212.51
416.954	215.8
417.167	177.44
417.38	203.21
417.592	215.61
417.805	155.16
418.017	125.9
418.23	222.97
418.442	175.31
418.655	170.08
418.868	190.61
419.08	227.04
419.293	225.49
419.505	204.37
419.718	187.32
419.93	236.53
420.142	195.07
420.355	240.21
420.567	252.23
420.78	209.02
420.992	196.43
421.205	245.06
421.417	176.86
421.629	187.9
421.842	181.7
422.054	170.85
422.266	246.61
422.479	243.51
422.691	183.06
422.903	220.45
423.115	184.42
423.328	198.75
423.54	212.51
423.752	214.45
423.964	199.91
424.177	232.27
424.389	208.63
424.601	311.71
424.813	236.34
425.025	235.76
425.238	233.43
425.45	231.69
425.662	180.54
425.874	505.07
426.086	226.26
426.298	234.79
426.51	222.97
426.722	226.07
426.934	171.82
427.146	234.21
427.358	178.41
427.57	269.86
427.782	189.65
427.994	231.5
428.206	202.82
428.418	179.57
428.63	266.95
428.842	260.75
429.054	221.23
429.266	259.01
429.478	225.68
429.69	223.55
429.902	196.81
430.114	227.43
430.325	226.07
430.537	180.93
430.749	209.6
430.961	143.73
431.173	180.93
431.384	209.8
431.596	159.42
431.808	220.45
432.02	244.09
432.231	287.88
432.443	288.65
432.655	244.09
432.867	214.25
433.078	270.05
433.29	322.17
433.502	293.88
433.713	275.67
433.925	261.33
434.136	319.84
434.348	230.14
434.56	225.68
434.771	338.83
434.983	210.18
435.194	274.7
435.406	265.79
435.617	319.07
435.829	342.51
436.04	308.61
436.252	303.96
436.463	350.65
436.675	331.08
436.886	326.43
437.098	322.36
437.309	344.84
437.521	304.93
437.732	333.21
437.943	319.46
438.155	308.61
438.366	260.56
438.578	374.29
438.789	314.23
439	310.93
439.211	293.69
439.423	303.38
439.634	327.98
439.845	339.61
440.057	349.68
440.268	364.21
440.479	287.88
440.69	343.09
440.902	307.64
441.113	323.91
441.324	326.24
441.535	376.22
441.746	404.9
441.957	323.33
442.168	344.64
442.38	366.15
442.591	379.91
442.802	336.51
443.013	333.41
443.224	393.47
443.435	339.99
443.646	363.83
443.857	349.49
444.068	327.4
444.279	359.56
444.49	430.67
444.701	381.07
444.912	471.74
445.123	404.71
445.334	404.51
445.545	372.35
445.756	387.46
445.967	362.08
446.178	389.4
446.388	397.92
446.599	396.57
446.81	374.87
447.021	352.59
447.232	424.27
447.443	449.07
447.653	391.14
447.864	414.2
448.075	377.77
448.286	414.01
448.496	398.51
448.707	448.49
448.918	385.14
449.129	486.47
449.339	394.24
449.55	407.42
449.761	413.81
449.971	466.32
450.182	404.32
450.393	458.57
450.603	401.99
450.814	456.82
451.024	454.5
451.235	481.24
451.446	500.8
451.656	477.36
451.867	446.94
452.077	434.16
452.288	472.52
452.498	501
452.709	421.95
452.919	461.47
453.13	403.93
453.34	483.75
453.55	395.41
453.761	448.3
453.971	441.32
454.182	432.99
454.392	476
454.602	518.44
454.813	491.31
455.023	457.79
455.233	402.57
455.444	451.21
455.654	413.23
455.864	427.57
456.075	455.85
456.285	425.82
456.495	437.64
456.705	475.42
456.916	521.73
457.126	501.58
457.336	497.32
457.546	423.31
457.756	494.22
457.967	498.48
458.177	474.45
458.387	494.6
458.597	426.02
458.807	468.45
459.017	452.75
459.227	469.22
459.437	453.53
459.647	506.04
459.857	487.44
460.068	476.39
460.278	525.02
460.488	494.22
460.698	542.07
460.908	494.6
461.117	483.17
461.327	465.54
461.537	471.74
461.747	507.97
461.957	501.97
462.167	609.5
462.377	514.17
462.587	511.07
462.797	543.23
463.007	516.5
463.216	536.26
463.426	558.15
463.636	553.31
463.846	461.67
464.056	483.75
464.265	539.94
464.475	480.46
464.685	516.11
464.895	526.57
465.104	497.32
465.314	556.99
465.524	501.58
465.733	481.43
465.943	577.53
466.153	589.73
466.362	549.43
466.572	563.38
466.782	549.24
466.991	516.89
467.201	581.4
467.41	459.15
467.62	565.71
467.829	553.7
468.039	579.47
468.249	540.91
468.458	556.6
468.668	584.7
468.877	567.84
469.086	630.61
469.296	640.3
469.505	582.57
469.715	629.45
469.924	561.25
470.134	634.88
470.343	635.85
470.552	604.46
470.762	570.55
470.971	567.45
471.18	584.12
471.39	582.57
471.599	565.32
471.808	615.89
472.018	584.12
472.227	662.58
472.436	670.53
472.645	650.38
472.855	633.13
473.064	675.56
473.273	675.56
473.482	674.01
473.691	690.1
473.901	672.85
474.11	642.05
474.319	758.29
474.528	680.8
474.737	738.53
474.946	701.53
475.155	716.64
475.364	738.53
475.573	711.6
475.783	730.2
475.992	720.32
476.201	755.39
476.41	704.43
476.619	700.56
476.828	714.12
477.037	700.95
477.245	708.31
477.454	773.79
477.663	737.76
477.872	725.36
478.081	806.92
478.29	739.5
478.499	844.71
478.708	790.26
478.917	823.78
479.125	773.6
479.334	816.03
479.543	802.27
479.752	781.35
479.961	831.92
480.169	848.19
480.378	825.72
480.587	940.03
480.796	852.07
481.004	818.55
481.213	867.18
481.422	841.41
481.63	870.67
481.839	846.64
482.048	923.37
482.256	871.83
482.465	941.97
482.674	946.04
482.882	939.06
483.091	993.12
483.299	903.6
483.508	937.9
483.716	911.16
483.925	937.12
484.134	881.71
484.342	911.74
484.551	951.27
484.759	940.61
484.967	946.81
485.176	945.84
485.384	974.9
485.593	963.09
485.801	946.62
486.01	910.39
486.218	927.44
486.426	828.04
486.635	827.07
486.843	803.63
487.051	879.19
487.26	865.82
487.468	912.71
487.676	956.3
487.885	926.66
488.093	954.37
488.301	978.2
488.509	1006.1
488.717	1023.34
488.926	992.53
489.134	1013.46
489.342	994.67
489.55	983.62
489.758	1033.03
489.967	1008.42
490.175	1106.26
490.383	1050.47
490.591	1121.18
490.799	1021.4
491.007	1133.78
491.215	1115.18
491.423	1065.38
491.631	1079.14
491.839	1100.06
492.047	1101.81
492.255	1055.5
492.463	998.54
492.671	1044.46
492.879	1101.03
493.087	1085.34
493.295	1101.23
493.503	1130.29
493.711	1142.69
493.919	1163.23
494.127	1150.05
494.334	1174.27
494.542	1137.85
494.75	1173.49
494.958	1124.48
495.166	1186.86
495.374	1136.1
495.581	1195.39
495.789	1166.52
495.997	1245.96
496.205	1155.86
496.412	1181.83
496.62	1174.85
496.828	1213.21
497.035	1166.71
497.243	1221.74
497.451	1219.99
497.658	1234.91
497.866	1221.93
498.074	1212.63
498.281	1182.6
498.489	1245.37
498.696	1187.25
498.904	1142.88
499.112	1170.01
499.319	1280.83
499.527	1226.58
499.734	1231.23
499.942	1191.71
500.149	1193.45
500.357	1213.41
500.564	1164.19
500.771	1217.48
500.979	1178.92
501.186	1208.76
501.394	1235.69
501.601	1173.69
501.808	1217.09
502.016	1172.33
502.223	1150.83
502.43	1234.72
502.638	1181.44
502.845	1180.28
503.052	1271.92
503.26	1207.98
503.467	1305.24
503.674	1237.82
503.881	1229.68
504.089	1306.99
504.296	1241.11
504.503	1170.2
504.71	1199.84
504.917	1186.09
505.125	1262.81
505.332	1274.05
505.539	1259.71
505.746	1358.91
505.953	1309.7
506.16	1314.16
506.367	1362.98
506.574	1377.32
506.781	1382.94
506.988	1277.34
507.195	1328.1
507.402	1284.12
507.609	1332.56
507.816	1271.92
508.023	1314.54
508.23	1274.05
508.437	1251.57
508.644	1336.63
508.851	1347.87
509.058	1339.34
509.265	1336.63
509.472	1360.07
509.679	1433.7
509.885	1359.1
510.092	1332.17
510.299	1325.2
510.506	1357.75
510.713	1357.94
510.92	1336.24
511.126	1331.2
511.333	1416.07
511.54	1385.26
511.746	1418.58
511.953	1421.3
512.16	1456.37
512.367	1404.25
512.573	1389.72
512.78	1398.82
512.987	1365.3
513.193	1394.17
513.4	1318.42
513.606	1370.34
513.813	1407.35
514.02	1404.83
514.226	1440.87
514.433	1446.1
514.639	1368.6
514.846	1376.35
515.052	1385.84
515.259	1371.89
515.465	1400.18
515.672	1409.87
515.878	1495.31
516.085	1405.99
516.291	1445.9
516.497	1420.72
516.704	1373.44
516.91	1325.97
517.117	1296.72
517.323	1248.28
517.529	1254.09
517.736	1288.58
517.942	1289.74
518.148	1286.45
518.354	1326.75
518.561	1325.2
518.767	1336.05
518.973	1393.4
519.179	1415.68
519.386	1384.29
519.592	1397.47
519.798	1388.94
520.004	1471.48
520.21	1457.33
520.417	1506.35
520.623	1533.67
520.829	1529.8
521.035	1500.93
521.241	1513.91
521.447	1531.15
521.653	1613.88
521.859	1513.91
522.065	1542
522.271	1635.97
522.477	1598.38
522.683	1613.69
522.889	1577.65
523.095	1563.7
523.301	1546.85
523.507	1540.26
523.713	1585.01
523.919	1535.03
524.125	1619.5
524.331	1602.26
524.537	1699.52
524.742	1617.95
524.948	1678.59
525.154	1666.78
525.36	1738.66
525.566	1660.77
525.772	1722.77
525.977	1640.04
526.183	1666
526.389	1677.04
526.595	1613.11
526.8	1604.58
527.006	1559.63
527.212	1508.1
527.417	1488.53
527.623	1519.14
527.829	1598.58
528.034	1588.5
528.24	1612.33
528.446	1616.79
528.651	1693.51
528.857	1665.61
529.062	1760.94
529.268	1705.33
529.473	1734.01
529.679	1748.92
529.884	1781.47
530.09	1765.78
530.295	1777.21
530.501	1776.82
530.706	1777.99
530.912	1768.1
531.117	1805.11
531.323	1770.62
531.528	1816.93
531.733	1863.04
531.939	1788.45
532.144	1801.62
532.35	1819.06
532.555	1856.07
532.76	1810.15
532.966	1801.43
533.171	1789.03
533.376	1730.71
533.581	1708.43
533.787	1777.99
533.992	1818.29
534.197	1822.74
534.402	1794.65
534.607	1839.02
534.813	1903.73
535.018	1812.28
535.223	1822.55
535.428	1872.53
535.633	1877.38
535.838	1897.53
536.043	1869.24
536.249	1960.88
536.454	1892.88
536.659	1918.65
536.864	1894.23
537.069	1882.22
537.274	1932.4
537.479	1883
537.684	1914.97
537.889	1854.9
538.094	1976.96
538.299	1900.43
538.504	1940.15
538.708	1905.28
538.913	1918.07
539.118	1927.95
539.323	1958.36
539.528	1895.78
539.733	1905.08
539.938	1940.73
540.142	1916.13
540.347	1864.4
540.552	1890.36
540.757	1879.51
540.962	1864.98
541.166	1886.1
541.371	1860.33
541.576	1864.4
541.781	1799.3
541.985	1910.32
542.19	1906.63
542.395	1965.73
542.599	2020.95
542.804	1972.51
543.008	2000.6
543.213	1920.78
543.418	1898.11
543.622	1975.61
543.827	1885.9
544.031	2002.73
544.236	2017.26
544.44	1970.18
544.645	2046.91
544.849	1952.16
545.054	2031.21
545.258	2079.07
545.463	2066.67
545.667	1952.55
545.872	2006.22
546.076	1998.08
546.281	2019.98
546.485	1966.11
546.689	1988.59
546.894	2038.38
547.098	2004.67
547.302	1986.26
547.507	1967.66
547.711	2004.67
547.915	2012.23
548.119	1973.67
548.324	1979.29
548.528	2075.78
548.732	2011.65
548.936	2013.97
549.141	2032.38
549.345	2016.88
549.549	2062.41
549.753	2059.89
549.957	2074.81
550.161	2117.24
550.366	2041.29
550.57	2042.45
550.774	2043.23
550.978	2053.11
551.182	2081.01
551.386	2009.32
551.59	2034.12
551.794	1994.79
551.998	2062.02
552.202	2013
552.406	2007.58
552.61	2069.77
552.814	2050.39
553.018	2070.35
553.222	2041.68
553.426	2048.84
553.63	2106.78
553.833	2066.28
554.037	1992.85
554.241	2073.06
554.445	2057.76
554.649	2018.23
554.853	2044.39
555.056	2096.89
555.26	2119.56
555.464	2091.08
555.668	2086.04
555.871	2063.96
556.075	2099.03
556.279	2046.91
556.483	2011.84
556.686	2049.23
556.89	2021.91
557.094	2038.96
557.297	1948.1
557.501	2071.13
557.704	1950.81
557.908	2024.63
558.112	1994.01
558.315	2090.69
558.519	2003.51
558.722	2011.06
558.926	1984.71
559.129	1913.61
559.333	1905.67
559.536	1921.94
559.74	1919.03
559.943	1896.17
560.147	1908.77
560.35	1925.62
560.553	1912.45
560.757	1864.59
560.96	2006.22
561.164	1946.93
561.367	1994.98
561.57	1924.27
561.774	1952.55
561.977	1940.15
562.18	1879.51
562.384	1974.45
562.587	1907.6
562.79	1913.42
562.993	1904.31
563.197	1950.61
563.4	1978.32
563.603	1963.79
563.806	2019.98
564.009	1885.13
564.212	1949.84
564.416	1839.21
564.619	1900.63
564.822	1828.55
565.025	1945.58
565.228	1881.64
565.431	1886.29
565.634	1863.43
565.837	1859.75
566.04	1812.47
566.243	1824.1
566.446	1715.21
566.649	1887.65
566.852	1734.2
567.055	1804.92
567.258	1839.21
567.461	1864.98
567.664	1888.23
567.867	1789.22
568.07	1847.74
568.273	1839.4
568.475	1864.4
568.678	1810.73
568.881	1799.69
569.084	1770.04
569.287	1666.19
569.489	1722.57
569.692	1790.58
569.895	1750.28
570.098	1709.59
570.3	1709.79
570.503	1639.65
570.706	1672.59
570.909	1650.69
571.111	1659.22
571.314	1631.32
571.516	1645.85
571.719	1667.74
571.922	1653.99
572.124	1652.24
572.327	1652.63
572.529	1628.03
572.732	1665.42
572.935	1705.72
573.137	1760.16
573.34	1636.94
573.542	1692.74
573.745	1701.46
573.947	1633.64
574.15	1649.92
574.352	1617.37
574.554	1693.51
574.757	1633.84
574.959	1591.99
575.162	1609.81
575.364	1612.91
575.566	1704.75
575.769	1578.04
575.971	1619.5
576.173	1525.92
576.376	1613.69
576.578	1636.16
576.78	1663.09
576.982	1520.11
577.185	1623.96
577.387	1553.82
577.589	1554.98
577.791	1621.83
577.993	1612.14
578.196	1590.44
578.398	1579.2
578.6	1573.39
578.802	1517.01
579.004	1513.71
579.206	1532.7
579.408	1608.65
579.61	1524.76
579.812	1602.64
580.014	1539.48
580.216	1532.51
580.418	1553.43
580.62	1546.65
580.822	1529.02
581.024	1571.65
581.226	1604.19
581.428	1552.85
581.63	1659.8
581.832	1562.35
582.034	1607.29
582.236	1574.55
582.438	1635.39
582.64	1677.24
582.841	1642.94
583.043	1675.11
583.245	1626.48
583.447	1602.26
583.649	1618.14
583.85	1615.24
584.052	1630.35
584.254	1554.4
584.456	1651.66
584.657	1558.86
584.859	1613.88
585.061	1590.44
585.262	1554.98
585.464	1565.83
585.666	1605.55
585.867	1548.98
586.069	1626.09
586.27	1603.03
586.472	1564.86
586.674	1532.51
586.875	1537.35
587.077	1559.44
587.278	1548.2
587.48	1548.2
587.681	1635.58
587.883	1541.03
588.084	1474.77
588.285	1518.56
588.487	1515.65
588.688	1537.74
588.89	1457.72
589.091	1406.77
589.292	1408.32
589.494	1360.07
589.695	1358.91
589.896	1292.26
590.098	1345.35
590.299	1356.78
590.5	1326.55
590.702	1429.24
590.903	1368.99
591.104	1461.4
591.305	1419.55
591.507	1475.55
591.708	1431.95
591.909	1455.4
592.11	1507.9
592.311	1452.88
592.512	1440.87
592.714	1395.72
592.915	1386.62
593.116	1438.54
593.317	1426.33
593.518	1428.27
593.719	1407.74
593.92	1467.8
594.121	1473.42
594.322	1479.23
594.523	1437.57
594.724	1402.5
594.925	1431.57
595.126	1419.94
595.327	1424.59
595.528	1430.21
595.729	1407.35
595.929	1433.31
596.13	1448.42
596.331	1428.47
596.532	1436.22
596.733	1482.13
596.934	1495.5
597.135	1447.45
597.335	1470.9
597.536	1448.03
597.737	1448.81
597.938	1413.35
598.138	1462.57
598.339	1456.17
598.54	1454.43
598.74	1427.3
598.941	1450.36
599.142	1486.4
599.342	1492.21
599.543	1393.59
599.744	1446.48
599.944	1464.5
600.145	1428.47
600.345	1447.84
600.546	1546.07
600.746	1513.33
600.947	1559.83
601.147	1456.95
601.348	1526.31
601.548	1431.37
601.749	1447.26
601.949	1405.6
602.15	1388.17
602.35	1396.3
602.551	1459.08
602.751	1414.71
602.951	1424.01
603.152	1375.96
603.352	1448.42
603.552	1420.72
603.753	1475.35
603.953	1464.12
604.153	1442.61
604.354	1452.49
604.554	1422.85
604.754	1474.97
604.954	1411.03
605.155	1480.58
605.355	1419.75
605.555	1474.38
605.755	1500.54
605.955	1493.95
606.155	1479.81
606.356	1455.98
606.556	1441.64
606.756	1471.87
606.956	1403.86
607.156	1502.09
607.356	1419.55
607.556	1449.78
607.756	1433.31
607.956	1427.3
608.156	1444.74
608.356	1364.92
608.556	1427.3
608.756	1396.89
608.956	1390.1
609.156	1406.77
609.356	1412
609.556	1369.37
609.755	1450.17
609.955	1364.92
610.155	1387.78
610.355	1395.92
610.555	1398.44
610.755	1392.24
610.954	1338.76
611.154	1381.19
611.354	1438.54
611.554	1372.86
611.753	1409.29
611.953	1369.57
612.153	1413.74
612.352	1408.51
612.552	1332.95
612.752	1292.84
612.951	1379.06
613.151	1382.74
613.351	1325.59
613.55	1328.3
613.75	1375.19
613.949	1348.64
614.149	1350.77
614.348	1349.8
614.548	1337.79
614.747	1274.82
614.947	1316.48
615.146	1268.43
615.346	1410.64
615.545	1316.09
615.745	1330.43
615.944	1312.41
616.144	1321.91
616.343	1356.59
616.542	1327.72
616.742	1342.25
616.941	1288.97
617.14	1203.91
617.34	1313.57
617.539	1323.46
617.738	1262.23
617.938	1344.96
618.137	1279.67
618.336	1258.74
618.535	1335.27
618.734	1312.22
618.934	1312.8
619.133	1309.31
619.332	1331.01
619.531	1278.31
619.73	1338.57
619.929	1356.97
620.128	1332.95
620.328	1353.68
620.527	1308.92
620.726	1299.04
620.925	1350.19
621.124	1305.24
621.323	1326.94
621.522	1261.84
621.721	1261.26
621.92	1251.57
622.119	1330.82
622.318	1272.5
622.517	1279.47
622.715	1286.06
622.914	1247.31
623.113	1284.51
623.312	1219.99
623.511	1290.71
623.71	1241.31
623.909	1219.03
624.107	1299.43
624.306	1241.89
624.505	1247.31
624.704	1237.24
624.902	1220.96
625.101	1292.46
625.3	1217.48
625.499	1162.64
625.697	1202.36
625.896	1159.35
626.095	1237.04
626.293	1166.52
626.492	1218.25
626.69	1186.09
626.889	1148.11
627.088	1253.32
627.286	1173.69
627.485	1185.31
627.683	1166.91
627.882	1195
628.08	1123.51
628.279	1133.58
628.477	1207.98
628.676	1118.08
628.874	1182.21
629.073	1114.21
629.271	1108.2
629.469	1171.56
629.668	1130.29
629.866	1157.99
630.065	1126.22
630.263	1160.51
630.461	1125.25
630.66	1176.21
630.858	1155.86
631.056	1191.71
631.254	1164.97
631.453	1127.38
631.651	1172.91
631.849	1132.23
632.047	1163.23
632.245	1139.59
632.444	1144.82
632.642	1162.06
632.84	1203.33
633.038	1166.33
633.236	1112.66
633.434	1155.48
633.632	1161.09
633.83	1127
634.028	1182.41
634.227	1166.91
634.425	1242.66
634.623	1173.3
634.821	1158.77
635.019	1169.43
635.216	1134.16
635.414	1199.46
635.612	1178.34
635.81	1152.57
636.008	1222.32
636.206	1168.07
636.404	1182.41
636.602	1157.8
636.8	1175.43
636.997	1203.53
637.195	1208.37
637.393	1182.41
637.591	1226.97
637.789	1169.23
637.986	1188.61
638.184	1195.39
638.382	1187.83
638.58	1204.3
638.777	1283.16
638.975	1209.14
639.173	1207.01
639.37	1179.11
639.568	1192.68
639.765	1201.98
639.963	1200.04
640.161	1261.46
640.358	1201.2
640.556	1155.28
640.753	1150.83
640.951	1128.16
641.148	1183.38
641.346	1164.97
641.543	1164.19
641.741	1201.59
641.938	1139.4
642.136	1162.84
642.333	1108.98
642.531	1202.94
642.728	1183.38
642.925	1190.16
643.123	1154.12
643.32	1184.54
643.517	1136.88
643.715	1163.42
643.912	1137.07
644.109	1188.41
644.306	1136.1
644.504	1156.06
644.701	1129.13
644.898	1136.3
645.095	1111.88
645.293	1142.5
645.49	1150.25
645.687	1159.54
645.884	1160.9
646.081	1074.88
646.278	1105.49
646.475	1125.06
646.672	1064.8
646.87	1127.96
647.067	1078.36
647.264	1069.26
647.461	1016.37
647.658	1062.09
647.855	1090.96
648.052	1048.14
648.249	961.54
648.446	1039.62
648.642	1074.68
648.839	1048.92
649.036	1069.45
649.233	1027.02
649.43	1003.19
649.627	980.91
649.824	1014.43
650.021	1027.99
650.217	1058.8
650.414	1026.25
650.611	1084.37
650.808	1088.63
651.004	1069.84
651.201	1072.16
651.398	1137.85
651.595	1047.95
651.791	1044.65
651.988	1070.23
652.185	1026.44
652.381	1061.32
652.578	1023.15
652.775	1061.12
652.971	1052.98
653.168	1013.46
653.364	1091.15
653.561	1012.49
653.757	1022.95
653.954	1036.71
654.15	1013.85
654.347	1103.55
654.543	1035.74
654.74	986.33
654.936	995.25
655.133	1045.82
655.329	993.31
655.525	1009.2
655.722	1005.9
655.918	963.47
656.115	971.8
656.311	919.69
656.507	897.6
656.704	842.77
656.9	880.16
657.096	898.37
657.292	899.15
657.489	931.12
657.685	947.59
657.881	920.85
658.077	928.6
658.273	969.29
658.47	1013.46
658.666	970.25
658.862	1004.55
659.058	987.69
659.254	1009.97
659.45	996.6
659.646	981.88
659.842	971.8
660.038	1032.25
660.234	961.34
660.43	966.57
660.626	1075.46
660.822	1024.5
661.018	1038.45
661.214	1002.03
661.41	978.78
661.606	1036.32
661.802	1045.23
661.998	1002.42
662.194	1025.28
662.39	1044.85
662.586	1061.32
662.781	1046.59
662.977	1022.37
663.173	1026.05
663.369	986.33
663.564	1015.4
663.76	1042.52
663.956	983.82
664.152	1040.97
664.347	965.6
664.543	1003.97
664.739	994.08
664.934	939.84
665.13	957.08
665.326	1037.87
665.521	1028.96
665.717	960.95
665.912	966.57
666.108	892.17
666.304	990.79
666.499	968.12
666.695	929.95
666.89	949.33
667.086	986.53
667.281	990.02
667.477	1064.03
667.672	1009.2
667.867	981.88
668.063	971.61
668.258	975.1
668.454	979.94
668.649	1049.88
668.844	981.88
669.04	978.78
669.235	957.27
669.43	983.04
669.626	922.2
669.821	965.99
670.016	933.05
670.211	956.69
670.407	948.17
670.602	931.5
670.797	938.48
670.992	984.01
671.187	939.25
671.382	998.35
671.578	924.53
671.773	948.17
671.968	891.01
672.163	950.88
672.358	965.02
672.553	938.09
672.748	926.47
672.943	988.08
673.138	924.34
673.333	939.25
673.528	918.33
673.723	970.64
673.918	912.9
674.113	908.84
674.308	1015.98
674.503	954.75
674.698	954.37
674.892	910.58
675.087	958.24
675.282	944.87
675.477	907.09
675.672	949.14
675.867	910.39
676.061	869.51
676.256	874.54
676.451	911.74
676.646	920.07
676.84	920.07
677.035	902.05
677.23	871.64
677.424	946.42
677.619	947
677.814	961.34
678.008	965.41
678.203	866.41
678.397	925.5
678.592	911.74
678.787	977.23
678.981	920.85
679.176	918.72
679.37	934.22
679.565	930.92
679.759	876.87
679.954	933.64
680.148	959.4
680.342	976.07
680.537	961.54
680.731	889.85
680.926	956.5
681.12	956.5
681.314	885.39
681.509	887.72
681.703	902.05
681.897	922.98
682.092	907.67
682.286	899.73
682.48	957.08
682.674	938.29
682.869	918.52
683.063	902.05
683.257	934.6
683.451	886.56
683.645	890.04
683.839	885.39
684.034	874.16
684.228	934.02
684.422	853.04
684.616	869.12
684.81	918.72
685.004	861.17
685.198	901.09
685.392	907.87
685.586	847.22
685.78	891.01
685.974	885.2
686.168	867.18
686.362	952.24
686.556	810.61
686.75	777.28
686.944	740.08
687.138	758.1
687.331	631.58
687.525	651.54
687.719	599.23
687.913	676.53
688.107	660.26
688.301	642.05
688.494	702.69
688.688	672.85
688.882	625.38
689.076	629.84
689.269	671.11
689.463	739.89
689.657	655.22
689.85	640.11
690.044	700.95
690.238	718.19
690.431	698.43
690.625	688.93
690.818	748.8
691.012	757.13
691.205	781.35
691.399	746.48
691.593	785.81
691.786	832.11
691.98	817.58
692.173	838.89
692.366	797.63
692.56	843.35
692.753	885.2
692.947	810.8
693.14	857.49
693.333	832.31
693.527	802.66
693.72	823.59
693.914	829.4
694.107	767.21
694.3	824.75
694.493	791.81
694.687	878.22
694.88	806.73
695.073	892.37
695.266	862.72
695.46	857.3
695.653	891.2
695.846	898.57
696.039	867.18
696.232	885.97
696.425	932.28
696.618	920.65
696.812	909.22
697.005	984.78
697.198	1050.85
697.391	958.05
697.584	992.53
697.777	1034.97
697.97	1044.85
698.163	1029.73
698.356	1005.71
698.549	1089.99
698.742	1054.73
698.935	1027.8
699.127	1063.45
699.32	1042.13
699.513	1013.27
699.706	1053.76
699.899	1069.45
700.092	1045.23
700.285	1097.55
700.477	1033.61
700.67	1077.98
700.863	1133.39
701.056	1174.46
701.248	1121.57
701.441	1128.35
701.634	1115.18
701.826	1204.3
702.019	1126.03
702.212	1174.85
702.404	1122.93
702.597	1106.85
702.79	1155.28
702.982	1205.66
703.175	1224.45
703.367	1232.78
703.56	1221.54
703.752	1326.55
703.945	1291.1
704.137	1276.18
704.33	1310.67
704.522	1319
704.715	1325.78
704.907	1367.24
705.1	1350.58
705.292	1366.08
705.484	1350.58
705.677	1388.75
705.869	1421.3
706.061	1437.77
706.254	1498.41
706.446	1425.95
706.638	1444.16
706.831	1498.6
707.023	1455.59
707.215	1546.65
707.407	1526.11
707.599	1536.38
707.792	1579.4
707.984	1579.59
708.176	1580.36
708.368	1554.98
708.56	1570.48
708.752	1620.47
708.944	1575.52
709.136	1643.72
709.329	1595.09
709.521	1758.42
709.713	1677.82
709.905	1674.14
710.097	1745.44
710.289	1685.18
710.481	1715.02
710.672	1746.79
710.864	1779.54
711.056	1799.3
711.248	1787.67
711.44	1800.46
711.632	1788.25
711.824	1860.91
712.016	1869.43
712.207	1893.65
712.399	1857.03
712.591	1934.34
712.783	1930.27
712.975	1923.3
713.166	1881.25
713.358	1948.29
713.55	1980.26
713.741	1995.18
713.933	1978.51
714.125	1981.23
714.316	1956.62
714.508	2024.63
714.7	2008.55
714.891	2013.58
715.083	2075.97
715.274	2037.61
715.466	2038.77
715.657	2114.14
715.849	1979.1
716.04	2064.15
716.232	2017.26
716.423	2050.98
716.615	1959.53
716.806	1926.4
716.998	1895.4
717.189	1868.08
717.381	1792.9
717.572	1752.41
717.763	1782.05
717.955	1763.07
718.146	1708.82
718.337	1657.09
718.528	1657.48
718.72	1517.01
718.911	1650.5
719.102	1599.16
719.293	1640.43
719.485	1637.52
719.676	1627.06
719.867	1581.14
720.058	1582.5
720.249	1590.05
720.44	1656.89
720.632	1678.01
720.823	1740.59
721.014	1871.76
721.205	1884.93
721.396	1941.31
721.587	2048.07
721.778	2092.83
721.969	2132.35
722.16	2156.76
722.351	2203.45
722.542	2277.08
722.733	2335.98
722.924	2225.74
723.115	2277.66
723.305	2254.99
723.496	2296.07
723.687	2139.52
723.878	2193.57
724.069	2181.56
724.26	2230.39
724.45	2121.31
724.641	2117.04
724.832	2165.09
725.023	2143.01
725.213	2142.23
725.404	2153.66
725.595	2138.94
725.785	2107.55
725.976	2228.64
726.167	2200.16
726.357	2186.79
726.548	2270.1
726.739	2207.72
726.929	2309.63
727.12	2316.99
727.31	2333.65
727.501	2282.7
727.691	2311.95
727.882	2321.64
728.072	2348.77
728.263	2353.03
728.453	2434.79
728.644	2394.1
728.834	2398.75
729.024	2386.74
729.215	2370.66
729.405	2435.37
729.596	2509.19
729.786	2492.14
729.976	2511.13
730.167	2562.27
730.357	2496.59
730.547	2506.09
730.737	2552.39
730.928	2578.55
731.118	2630.67
731.308	2596.57
731.498	2593.08
731.688	2754.47
731.879	2700.42
732.069	2801.17
732.259	2812.98
732.449	2836.81
732.639	2906.18
732.829	2963.14
733.019	2982.9
733.209	3035.6
733.399	3066.02
733.589	3166.38
733.779	3163.08
733.969	3198.54
734.159	3267.13
734.349	3287.08
734.539	3341.14
734.729	3330.1
734.919	3355.09
735.109	3396.94
735.299	3340.75
735.488	3388.22
735.678	3409.73
735.868	3358.19
736.058	3387.44
736.248	3418.06
736.437	3363.03
736.627	3368.46
736.817	3471.92
737.007	3402.75
737.196	3517.25
737.386	3478.51
737.576	3461.26
737.765	3491.87
737.955	3471.92
738.144	3643.19
738.334	3565.69
738.524	3500.98
738.713	3538.95
738.903	3547.67
739.092	3610.45
739.282	3626.92
739.471	3637.96
739.661	3607.35
739.85	3712.94
740.04	3657.92
740.229	3697.05
740.419	3730.18
740.608	3724.37
740.797	3726.11
740.987	3771.06
741.176	3807.68
741.365	3796.64
741.555	3693.95
741.744	3826.86
741.933	3756.15
742.123	3795.86
742.312	3838.68
742.501	3841.01
742.69	3850.89
742.88	3789.66
743.069	3938.66
743.258	3889.83
743.447	3946.99
743.636	3906.69
743.825	3906.69
744.014	3929.16
744.204	3955.7
744.393	3904.94
744.582	4027
744.771	4014.99
744.96	3946.99
745.149	4020.8
745.338	3930.71
745.527	3965.59
745.716	3971.4
745.905	3971.98
746.094	4051.42
746.283	4044.63
746.471	3981.67
746.66	4087.26
746.849	4043.47
747.038	4072.73
747.227	3998.52
747.416	4013.05
747.604	3996.59
747.793	4002.98
747.982	3992.9
748.171	4065.17
748.359	4059.17
748.548	4006.08
748.737	4051.42
748.926	4010.92
749.114	3920.44
749.303	4016.35
749.491	4014.22
749.68	3911.72
749.869	4025.84
750.057	3964.62
750.246	3983.99
750.434	3962.1
750.623	3983.02
750.811	3933.62
751	4001.62
751.188	3938.07
751.377	3969.46
751.565	3949.5
751.754	3953.77
751.942	3913.08
752.131	3973.72
752.319	3931.49
752.507	3912.89
752.696	3961.71
752.884	4013.05
753.072	3935.17
753.261	3960.16
753.449	3896.03
753.637	3940.98
753.825	4027
754.014	3925.48
754.202	3977.21
754.39	4039.02
754.578	3960.74
754.766	3880.53
754.955	3916.76
755.143	3974.11
755.331	3944.66
755.519	3939.43
755.707	3894.87
755.895	3897.19
756.083	3925.09
756.271	3848.37
756.459	3914.63
756.647	3906.88
756.835	3840.43
757.023	3877.04
757.211	3841.78
757.399	3820.28
757.587	3781.53
757.775	3741.61
757.963	3792.57
758.151	3799.74
758.339	3753.43
758.526	3757.11
758.714	3749.36
758.902	3648.42
759.09	3554.26
759.278	3289.6
759.465	3034.63
759.653	2650.62
759.841	2380.93
760.028	2028.69
760.216	1779.73
760.404	1662.32
760.591	1378.67
760.779	1188.8
760.967	1012.68
761.154	832.69
761.342	884.62
761.529	835.02
761.717	923.95
761.905	903.41
762.092	953.4
762.28	919.49
762.467	859.62
762.655	838.31
762.842	864.47
763.029	857.49
763.217	871.25
763.404	874.35
763.592	894.69
763.779	868.34
763.966	919.1
764.154	951.65
764.341	1009.58
764.528	1047.56
764.716	1100.65
764.903	1197.71
765.09	1231.23
765.277	1298.07
765.465	1468.96
765.652	1549.75
765.839	1636.94
766.026	1762.49
766.213	1803.56
766.4	1915.16
766.588	2142.04
766.775	2189.7
766.962	2267.97
767.149	2349.93
767.336	2502.79
767.523	2520.43
767.71	2675.62
767.897	2747.11
768.084	2873.43
768.271	2879.44
768.458	2975.34
768.645	3053.23
768.832	3048.97
769.019	3064.86
769.206	3174.71
769.392	3179.55
769.579	3265.38
769.766	3274.68
769.953	3270.61
770.14	3330.68
770.327	3325.83
770.513	3360.32
770.7	3432.59
770.887	3339.59
771.073	3401.2
771.26	3378.34
771.447	3376.59
771.634	3344.24
771.82	3436.46
772.007	3378.73
772.193	3375.04
772.38	3453.71
772.567	3370.78
772.753	3357.22
772.94	3408.95
773.126	3448.67
773.313	3423.29
773.499	3380.86
773.686	3440.72
773.872	3368.84
774.059	3426.97
774.245	3339.59
774.432	3340.94
774.618	3284.18
774.804	3312.27
774.991	3318.66
775.177	3364
775.363	3295.61
775.55	3364.39
775.736	3309.17
775.922	3342.11
776.109	3303.94
776.295	3330.29
776.481	3325.64
776.667	3350.05
776.853	3294.06
777.04	3264.41
777.226	3305.68
777.412	3369.81
777.598	3255.11
777.784	3293.86
777.97	3280.69
778.156	3277.78
778.342	3302.97
778.528	3220.82
778.715	3209.78
778.901	3224.5
779.087	3233.03
779.272	3202.22
779.458	3208.03
779.644	3205.71
779.83	3164.05
780.016	3318.47
780.202	3204.55
780.388	3208.23
780.574	3141.58
780.76	3179.75
780.946	3233.8
781.131	3174.71
781.317	3158.24
781.503	3100.5
781.689	3127.82
781.874	3247.37
782.06	3103.41
782.246	3126.08
782.432	3103.99
782.617	3116.78
782.803	3154.75
782.989	3066.02
783.174	3071.44
783.36	3029.98
783.545	3041.99
783.731	3054.39
783.916	2969.92
784.102	3106.12
784.288	3027.07
784.473	3035.99
784.659	3018.74
784.844	3035.6
785.029	2982.9
785.215	2988.91
785.4	2955.97
785.586	3044.51
785.771	2930.98
785.956	2987.55
786.142	2941.63
786.327	2967.21
786.512	2970.89
786.698	2940.86
786.883	2843.01
787.068	2936.79
787.254	2932.14
787.439	2886.41
787.624	2893
787.809	2870.14
787.994	2809.3
788.18	2895.91
788.365	2787.8
788.55	2816.86
788.735	2830.81
788.92	2811.63
789.105	2812.4
789.29	2829.84
789.475	2737.81
789.66	2756.22
789.845	2742.07
790.03	2756.41
790.215	2772.68
790.4	2772.68
790.585	2793.42
790.77	2762.8
790.955	2675.81
791.14	2717.08
791.325	2772.3
791.51	2665.54
791.695	2687.63
791.879	2705.45
792.064	2648.1
792.249	2755.25
792.434	2720.37
792.618	2692.09
792.803	2772.1
792.988	2747.5
793.173	2733.16
793.357	2745.56
793.542	2681.62
793.727	2681.04
793.911	2781.98
794.096	2743.82
794.281	2761.45
794.465	2810.47
794.65	2744.01
794.834	2777.72
795.019	2800.39
795.203	2798.45
795.388	2813.76
795.572	2788.96
795.757	2770.94
795.941	2812.98
796.126	2772.88
796.31	2689.37
796.494	2764.16
796.679	2720.37
796.863	2696.74
797.048	2767.84
797.232	2779.08
797.416	2789.73
797.601	2775.59
797.785	2834.68
797.969	2839.91
798.153	2732.77
798.338	2828.1
798.522	2806.78
798.706	2817.63
798.89	2831.78
799.074	2868.59
799.258	2822.28
799.443	2783.34
799.627	2807.95
799.811	2853.48
799.995	2801.55
800.179	2751.37
800.363	2768.42
800.547	2833.33
800.731	2822.67
800.915	2693.83
801.099	2757.57
801.283	2768.03
801.467	2774.43
801.651	2777.14
801.835	2809.88
802.019	2767.26
802.202	2780.82
802.386	2748.47
802.57	2719.6
802.754	2730.64
802.938	2683.95
803.121	2707.59
803.305	2827.13
803.489	2736.45
803.673	2747.88
803.856	2744.4
804.04	2685.69
804.224	2706.62
804.407	2769.2
804.591	2725.99
804.775	2754.28
804.958	2733.16
805.142	2856.38
805.326	2763.19
805.509	2770.94
805.693	2807.95
805.876	2828.68
806.06	2785.86
806.243	2807.17
806.427	2845.92
806.61	2883.7
806.794	2787.02
806.977	2791.28
807.16	2820.54
807.344	2812.79
807.527	2782.37
807.71	2768.62
807.894	2755.25
808.077	2786.44
808.26	2750.98
808.444	2712.04
808.627	2789.54
808.81	2698.48
808.993	2669.42
809.177	2636.29
809.36	2664.77
809.543	2676.59
809.726	2548.13
809.909	2632.99
810.092	2567.31
810.276	2562.86
810.459	2603.74
810.642	2594.05
810.825	2513.64
811.008	2556.27
811.191	2448.55
811.374	2455.71
811.557	2457.46
811.74	2542.71
811.923	2404.56
812.106	2374.73
812.289	2394.49
812.472	2411.93
812.654	2360.58
812.837	2345.28
813.02	2300.52
813.203	2263.9
813.386	2131.57
813.569	2168.97
813.751	2110.84
813.934	2153.66
814.117	2064.15
814.3	2040.13
814.482	2007
814.665	1953.33
814.848	1906.05
815.03	1859.36
815.213	1849.67
815.396	1859.75
815.578	1848.7
815.761	1747.96
815.943	1852.58
816.126	1777.99
816.309	1726.84
816.491	1639.07
816.674	1629.58
816.856	1667.36
817.039	1663.68
817.221	1718.31
817.403	1692.74
817.586	1692.35
817.768	1747.57
817.951	1595.67
818.133	1597.03
818.315	1650.89
818.498	1649.73
818.68	1753.38
818.862	1709.59
819.045	1747.57
819.227	1724.9
819.409	1689.25
819.591	1731.49
819.774	1687.7
819.956	1678.01
820.138	1733.04
820.32	1776.05
820.502	1830.1
820.684	1875.44
820.866	1896.95
821.048	1949.65
821.231	1954.88
821.413	1920.97
821.595	1899.47
821.777	1941.12
821.959	1930.66
822.141	1974.64
822.323	1843.86
822.505	1768.69
822.686	1697.77
822.868	1652.05
823.05	1528.05
823.232	1476.52
823.414	1462.18
823.596	1539.68
823.778	1489.88
823.96	1518.56
824.141	1531.35
824.323	1574.36
824.505	1622.21
824.687	1692.35
824.868	1744.47
825.05	1864.4
825.232	1862.27
825.413	1939.38
825.595	1872.92
825.777	1833.79
825.958	1886.29
826.14	1866.53
826.321	1920
826.503	1885.52
826.685	1946.55
826.866	1905.67
827.048	1919.23
827.229	1844.83
827.411	1818.87
827.592	1768.88
827.773	1731.49
827.955	1702.81
828.136	1728.39
828.318	1704.94
828.499	1729.55
828.68	1636.94
828.862	1665.03
829.043	1700.29
829.224	1691.19
829.406	1632.87
829.587	1661.16
829.768	1662.9
829.949	1689.44
830.131	1710.95
830.312	1741.17
830.493	1709.21
830.674	1728.77
830.855	1669.29
831.036	1690.99
831.218	1755.51
831.399	1771.59
831.58	1726.26
831.761	1690.41
831.942	1717.92
832.123	1702.42
832.304	1647.01
832.485	1655.34
832.666	1715.79
832.847	1725.09
833.028	1687.31
833.209	1718.89
833.389	1671.62
833.57	1626.28
833.751	1670.07
833.932	1727.03
834.113	1693.51
834.294	1652.63
834.475	1704.17
834.655	1707.66
834.836	1740.79
835.017	1726.64
835.198	1649.92
835.378	1757.26
835.559	1782.05
835.74	1724.71
835.92	1719.47
836.101	1725.29
836.281	1785.54
836.462	1735.75
836.643	1809.37
836.823	1808.21
837.004	1781.47
837.184	1814.99
837.365	1783.6
837.545	1774.89
837.726	1782.05
837.906	1839.4
838.087	1796.59
838.267	1792.52
838.448	1736.33
838.628	1781.47
838.808	1764.04
838.989	1801.43
839.169	1773.53
839.349	1811.31
839.53	1833.59
839.71	1811.89
839.89	1792.32
840.07	1829.91
840.251	1756.48
840.431	1839.02
840.611	1747.18
840.791	1755.12
840.971	1789.03
841.151	1740.01
841.332	1762.87
841.512	1795.62
841.692	1721.22
841.872	1778.57
842.052	1753.77
842.232	1801.82
842.412	1741.37
842.592	1751.83
842.772	1776.05
842.952	1787.87
843.132	1741.17
843.312	1718.51
843.492	1740.98
843.672	1765.39
843.851	1691.77
844.031	1736.52
844.211	1728.97
844.391	1722.96
844.571	1755.9
844.751	1743.11
844.93	1776.63
845.11	1725.29
845.29	1732.84
845.47	1758.42
845.649	1711.72
845.829	1754.74
846.009	1736.72
846.188	1725.48
846.368	1749.89
846.547	1734.01
846.727	1734.97
846.907	1695.64
847.086	1715.21
847.266	1767.14
847.445	1730.52
847.625	1714.82
847.804	1657.28
847.984	1707.07
848.163	1660.38
848.343	1664.06
848.522	1668.91
848.701	1666.39
848.881	1698.16
849.06	1666.58
849.239	1637.71
849.419	1641.39
849.598	1610.39
849.777	1622.99
849.957	1558.47
850.136	1537.74
850.315	1514.1
850.494	1534.06
850.674	1519.53
850.853	1612.33
851.032	1619.11
851.211	1595.28
851.39	1547.62
851.569	1519.72
851.748	1516.43
851.927	1608.26
852.107	1563.31
852.286	1513.33
852.465	1512.55
852.644	1604
852.823	1563.9
853.002	1572.03
853.181	1599.54
853.359	1573.78
853.538	1526.31
853.717	1545.3
853.896	1459.27
854.075	1396.3
854.254	1376.74
854.433	1311.64
854.611	1369.37
854.79	1314.54
854.969	1349.03
855.148	1378.09
855.327	1341.09
855.505	1394.37
855.684	1378.48
855.863	1415.29
856.041	1453.27
856.22	1457.33
856.399	1399.6
856.577	1495.31
856.756	1477.29
856.934	1536.19
857.113	1552.08
857.291	1497.05
857.47	1471.28
857.648	1479.81
857.827	1495.89
858.005	1539.68
858.184	1463.53
858.362	1554.6
858.541	1523.4
858.719	1512.55
858.898	1480.39
859.076	1468.38
859.254	1520.69
859.433	1472.45
859.611	1464.31
859.789	1456.75
859.967	1511.97
860.146	1538.51
860.324	1422.65
860.502	1409.87
860.68	1415.68
860.859	1435.05
861.037	1408.32
861.215	1464.31
861.393	1442.03
861.571	1419.17
861.749	1387.97
861.927	1432.34
862.105	1381.39
862.283	1452.49
862.461	1404.25
862.639	1388.55
862.817	1414.13
862.995	1394.17
863.173	1441.06
863.351	1414.13
863.529	1405.6
863.707	1434.47
863.885	1392.24
864.063	1302.92
864.241	1365.11
864.418	1413.35
864.596	1365.5
864.774	1346.51
864.952	1382.94
865.129	1405.6
865.307	1320.55
865.485	1320.94
865.663	1364.72
865.84	1263.59
866.018	1293.62
866.196	1184.34
866.373	1194.81
866.551	1182.02
866.728	1126.41
866.906	1180.66
867.084	1185.89
867.261	1222.13
867.439	1226.58
867.616	1273.66
867.794	1250.22
867.971	1260.1
868.149	1257
868.326	1313.38
868.503	1313.38
868.681	1274.44
868.858	1238.98
869.035	1237.82
869.213	1287.22
869.39	1258.55
869.567	1334.3
869.745	1259.71
869.922	1256.81
870.099	1302.14
870.276	1311.06
870.454	1301.17
870.631	1248.67
870.808	1286.26
870.985	1278.7
871.162	1328.3
871.339	1273.86
871.517	1233.17
871.694	1218.83
871.871	1271.53
872.048	1225.23
872.225	1244.99
872.402	1240.14
872.579	1189.96
872.756	1247.31
872.933	1217.09
873.11	1220.96
873.287	1233.56
873.463	1200.04
873.64	1196.16
873.817	1206.04
873.994	1223.29
874.171	1177.76
874.348	1205.66
874.524	1145.79
874.701	1199.26
874.878	1102
875.055	1230.84
875.231	1167.49
875.408	1183.57
875.585	1134.75
875.762	1175.24
875.938	1174.27
876.115	1150.25
876.291	1137.26
876.468	1160.9
876.645	1129.9
876.821	1105.3
876.998	1166.71
877.174	1130.1
877.351	1115.56
877.527	1127.19
877.704	1131.84
877.88	1083.01
878.057	1131.65
878.233	1150.05
878.409	1121.76
878.586	1118.86
878.762	1129.71
878.938	1106.07
879.115	1059.77
879.291	1083.21
879.467	1047.37
879.644	1096.19
879.82	1100.45
879.996	1038.45
880.172	1046.98
880.349	1084.76
880.525	1109.17
880.701	1045.23
880.877	1023.34
881.053	1073.52
881.229	1066.16
881.405	1101.23
881.581	1040.58
881.757	1062.48
881.933	1085.92
882.109	1106.65
882.285	1070.23
882.461	996.6
882.637	1048.72
882.813	1045.23
882.989	1027.41
883.165	1109.75
883.341	1041.75
883.517	1069.84
883.693	1077.4
883.869	1063.64
884.044	1033.03
884.22	1082.82
884.396	1092.51
884.572	1074.68
884.747	1083.21
884.923	1071.39
885.099	1090.76
885.275	1105.49
885.45	1034.58
885.626	1057.63
885.801	1040.97
885.977	1032.83
886.153	977.62
886.328	1046.01
886.504	1045.23
886.679	1052.98
886.855	1023.92
887.03	1061.51
887.206	1078.75
887.381	1083.98
887.557	1081.66
887.732	1077.4
887.908	1094.25
888.083	1091.15
888.258	1021.98
888.434	1046.78
888.609	1064.03
888.784	1088.63
888.96	1056.86
889.135	1026.25
889.31	1060.54
889.485	1034
889.661	1043.3
889.836	1083.6
890.011	1075.85
890.186	1031.09
890.361	1034.58
890.537	1056.47
890.712	1078.75
890.887	1082.63
891.062	1034.38
891.237	1115.95
891.412	990.02
891.587	1049.11
891.762	1048.72
891.937	1075.85
892.112	995.05
892.287	1053.76
892.462	999.32
892.637	974.9
892.812	958.24
892.987	984.78
893.161	953.79
893.336	957.08
893.511	979.17
893.686	962.31
893.861	965.99
894.035	932.09
894.21	925.89
894.385	906.32
894.56	912.52
894.734	864.47
894.909	891.98
895.084	833.47
895.258	852.46
895.433	861.76
895.608	806.54
895.782	770.11
895.957	796.08
896.131	820.29
896.306	737.18
896.48	727.68
896.655	737.56
896.829	653.48
897.004	689.9
897.178	683.51
897.353	661.23
897.527	707.92
897.701	701.72
897.876	651.93
898.05	729.62
898.224	696.68
898.399	733.3
898.573	680.6
898.747	571.52
898.921	638.95
899.096	558.73
899.27	569.2
899.444	544.2
899.618	591.09
899.792	582.18
899.967	599.23
900.141	613.76
900.315	560.87
900.489	600.78
900.663	602.13
900.837	611.63
901.011	560.48
901.185	650.57
901.359	604.27
901.533	593.22
901.707	593.61
901.881	593.61
902.055	556.41
902.229	573.46
902.403	658.51
902.576	601.75
902.75	615.12
902.924	710.05
903.098	649.41
903.272	701.53
903.446	754.23
903.619	727.88
903.793	757.91
903.967	736.01
904.14	766.82
904.314	779.99
904.488	762.94
904.661	778.83
904.835	760.62
905.009	791.62
905.182	827.66
905.356	792.2
905.529	786.97
905.703	747.25
905.876	732.33
906.05	710.25
906.223	695.71
906.397	608.72
906.57	632.94
906.744	579.27
906.917	597.1
907.09	587.8
907.264	565.71
907.437	577.92
907.61	523.67
907.784	559.51
907.957	555.05
908.13	570.75
908.304	553.89
908.477	522.7
908.65	555.25
908.823	531.22
908.996	567.26
909.17	523.67
909.343	532.39
909.516	539.17
909.689	493.05
909.862	485.11
910.035	520.76
910.208	487.05
910.381	496.54
910.554	580.24
910.727	487.82
910.9	502.74
911.073	523.47
911.246	570.55
911.419	571.72
911.592	546.33
911.765	500.61
911.938	498.87
912.11	531.03
912.283	531.03
912.456	563.38
912.629	547.69
912.802	495.96
912.974	452.37
913.147	398.7
913.32	381.84
913.493	435.9
913.665	446.75
913.838	436.09
914.01	438.03
914.183	468.64
914.356	455.85
914.528	506.04
914.701	520.76
914.873	497.32
915.046	459.34
915.218	384.75
915.391	342.13
915.563	401.22
915.736	458.37
915.908	448.49
916.081	441.13
916.253	418.27
916.425	492.09
916.598	470.97
916.77	445.39
916.942	442.68
917.115	367.51
917.287	424.47
917.459	410.32
917.632	397.15
917.804	358.21
917.976	415.94
918.148	447.14
918.32	430.67
918.493	464.38
918.665	474.65
918.837	444.23
919.009	523.47
919.181	500.8
919.353	491.7
919.525	449.85
919.697	493.05
919.869	500.22
920.041	527.93
920.213	582.95
920.385	529.67
920.557	502.16
920.729	500.42
920.901	499.84
921.073	499.45
921.244	494.22
921.416	530.25
921.588	496.74
921.76	452.75
921.932	519.21
922.103	477.75
922.275	516.5
922.447	484.34
922.619	447.52
922.79	483.37
922.962	446.17
923.134	474.45
923.305	423.11
923.477	421.56
923.648	412.65
923.82	418.27
923.991	379.32
924.163	375.06
924.335	429.51
924.506	403.74
924.677	454.89
924.849	372.35
925.02	402.96
925.192	431.06
925.363	420.01
925.535	405.67
925.706	396.57
925.877	433.19
926.049	400.83
926.22	421.17
926.391	446.75
926.562	460.89
926.734	377.19
926.905	428.73
927.076	362.47
927.247	390.76
927.419	358.21
927.59	358.59
927.761	359.95
927.932	343.68
928.103	349.49
928.274	317.33
928.445	277.41
928.616	298.14
928.787	318.49
928.958	322.17
929.129	279.74
929.3	244.86
929.471	232.85
929.642	214.64
929.813	174.92
929.984	217.16
930.155	192.94
930.326	203.79
930.496	184.61
930.667	123.38
930.838	166.2
931.009	157.29
931.18	151.48
931.35	131.33
931.521	146.63
931.692	106.33
931.863	62.16
932.033	119.7
932.204	124.35
932.374	132.3
932.545	61.58
932.716	145.08
932.886	141.6
933.057	51.89
933.227	33.49
933.398	125.52
933.568	57.51
933.739	31.94
933.909	33.68
934.08	85.41
934.25	44.92
934.421	26.12
934.591	54.22
934.761	63.32
934.932	8.69
935.102	48.79
935.272	36.2
935.443	26.51
935.613	11.4
935.783	28.45
935.953	10.62
936.123	151.87
936.294	15.47
936.464	42.01
936.634	31.74
936.804	-0.42
936.974	2.68
937.144	74.17
937.314	52.47
937.484	0.74
937.655	-7.39
937.825	72.82
937.995	18.37
938.165	79.6
938.334	41.24
938.504	48.21
938.674	32.52
938.844	59.64
939.014	129
939.184	120.87
939.354	157.48
939.524	117.38
939.694	118.54
939.863	76.5
940.033	128.81
940.203	121.25
940.373	127.45
940.542	98
940.712	95.1
940.882	129.2
941.051	118.35
941.221	108.08
941.391	149.35
941.56	81.92
941.73	66.81
941.899	202.82
942.069	102.07
942.238	98.78
942.408	83.47
942.577	130.36
942.747	66.42
942.916	37.17
943.086	67.59
943.255	119.32
943.425	69.33
943.594	73.98
943.763	18.37
943.933	74.37
944.102	-9.91
944.271	70.3
944.441	104.78
944.61	64.49
944.779	54.02
944.948	127.65
945.117	20.89
945.287	67
945.456	4.04
945.625	49.18
945.794	57.7
945.963	32.71
946.132	77.08
946.301	37.55
946.47	76.5
946.639	37.36
946.808	56.93
946.977	62.16
947.146	114.28
947.315	48.21
947.484	86.96
947.653	72.04
947.822	51.31
947.991	48.79
948.16	106.72
948.329	124.74
948.498	61.58
948.666	67.78
948.835	73.79
949.004	24.57
949.173	39.88
949.341	67
949.51	80.95
949.679	92.97
949.847	77.47
950.016	128.62
950.185	112.73
950.353	38.91
950.522	63.13
950.69	112.73
950.859	49.76
951.028	102.85
951.196	79.4
951.365	63.52
951.533	75.14
951.701	78.82
951.87	84.64
952.038	21.47
952.207	36.39
952.375	109.05
952.543	40.85
952.712	58.67
952.88	87.54
953.048	97.04
953.217	97.81
953.385	53.05
953.553	95.68
953.721	46.08
953.89	73.2
954.058	40.46
954.226	44.53
954.394	35.62
954.562	32.9
954.73	50.15
954.898	42.98
955.067	109.05
955.235	45.11
955.403	118.73
955.571	111.76
955.739	69.14
955.907	52.09
956.075	45.69
956.243	36
956.41	88.51
956.578	27.29
956.746	42.59
956.914	56.93
957.082	73.2
957.25	65.65
957.418	62.16
957.585	79.79
957.753	110.98
957.921	35.62
958.089	80.95
958.256	78.82
958.424	93.55
958.592	97.62
958.759	52.47
958.927	84.05
959.095	40.85
959.262	59.64
959.43	78.24
959.597	30.58
959.765	66.42
959.932	36.97
960.1	85.99
960.267	66.42
960.435	65.45
960.602	82.31
960.77	84.64
960.937	36.2
961.104	92.77
961.272	15.47
961.439	41.82
961.606	95.49
961.774	104.2
961.941	47.24
962.108	69.52
962.275	104.2
962.443	98.78
962.61	95.1
962.777	150.51
962.944	93.55
963.111	99.55
963.278	101.69
963.446	96.26
963.613	80.37
963.78	62.74
963.947	91.8
964.114	103.62
964.281	168.33
964.448	85.99
964.615	65.26
964.782	99.55
964.949	110.6
965.116	90.06
965.282	127.84
965.449	91.03
965.616	46.08
965.783	72.04
965.95	104.98
966.117	78.63
966.283	86.77
966.45	136.17
966.617	98.59
966.784	112.53
966.95	129.39
967.117	125.13
967.284	81.54
967.45	88.12
967.617	133.07
967.784	135.2
967.95	167.17
968.117	104.2
968.283	141.4
968.45	166.78
968.616	123.38
968.783	141.4
968.949	117.38
969.116	171.43
969.282	90.45
969.449	133.27
969.615	116.99
969.781	54.99
969.948	118.93
970.114	93.94
970.28	167.95
970.447	128.42
970.613	141.6
970.779	122.61
970.945	121.64
971.112	116.02
971.278	119.51
971.444	120.28
971.61	141.02
971.776	82.7
971.942	112.34
972.108	155.74
972.275	88.51
972.441	106.14
972.607	194.3
972.773	60.42
972.939	136.17
973.105	89.09
973.271	71.85
973.437	96.65
973.602	96.84
973.768	112.15
973.934	102.46
974.1	125.32
974.266	32.9
974.432	96.07
974.598	111.76
974.763	112.34
974.929	106.14
975.095	157.87
975.261	64.49
975.426	62.74
975.592	92
975.758	145.67
975.923	39.88
976.089	73.2
976.255	128.81
976.42	103.62
976.586	121.83
976.751	93.55
976.917	169.11
977.082	115.44
977.248	75.14
977.413	68.17
977.579	99.94
977.744	87.35
977.91	57.51
978.075	88.12
978.24	138.69
978.406	107.3
978.571	69.33
978.736	68.94
978.902	119.9
979.067	59.25
979.232	44.92
979.397	107.88
979.563	140.24
979.728	35.42
979.893	85.02
980.058	96.26
980.223	120.67
980.388	99.17
980.554	55.77
980.719	95.1
980.884	101.3
981.049	109.43
981.214	87.15
981.379	116.02
981.544	85.8
981.709	86.96
981.874	97.04
982.039	96.26
982.204	135.01
982.368	75.14
982.533	36.97
982.698	127.07
982.863	118.93
983.028	98
983.193	123.58
983.357	103.62
983.522	107.3
983.687	87.35
983.852	80.95
984.016	97.42
984.181	100.14
984.346	115.44
984.51	112.15
984.675	113.7
984.839	100.14
985.004	102.27
985.168	111.57
985.333	121.06
985.498	90.25
985.662	98
985.827	104.98
985.991	98.2
986.155	96.84
986.32	112.53
986.484	144.5
986.649	129.58
986.813	37.55
986.977	87.74
987.142	102.27
987.306	71.46
987.47	72.62
987.634	81.54
987.799	92.97
987.963	95.68
988.127	103.82
988.291	144.12
988.455	93.16
988.62	87.35
988.784	105.17
988.948	117.38
989.112	76.69
989.276	93.35
989.44	95.1
989.604	78.05
989.768	97.23
989.932	166.01
990.096	68.36
990.26	64.1
990.424	48.6
990.588	94.32
990.752	152.45
990.915	110.21
991.079	84.83
991.243	59.45
991.407	115.25
991.571	92.39
991.734	107.88
991.898	123.19
992.062	175.31
992.226	91.22
992.389	81.15
992.553	64.87
992.717	67.97
992.88	74.17
993.044	84.64
993.207	62.55
993.371	98.39
993.535	94.13
993.698	87.93
993.862	120.28
994.025	121.64
994.189	103.82
994.352	99.17
994.515	98.39
994.679	102.85
994.842	85.22
995.006	76.3
995.169	87.74
995.332	90.25
995.496	104.01
995.659	49.57
995.822	75.14
995.985	84.64
996.149	108.85
996.312	75.53
996.475	149.93
996.638	58.87
996.801	115.83
996.964	108.66
997.128	71.07
997.291	62.94
997.454	76.89
997.617	23.99
997.78	102.65
997.943	46.66
998.106	94.13
998.269	57.12
998.432	64.68
998.595	70.88
998.758	33.29
998.92	22.05
999.083	26.9
999.246	41.24
999.409	32.13
999.572	15.85
999.735	70.1
999.897	106.92
1000.06	35.42
1000.223	45.3
1000.386	105.75
1000.548	85.41
1000.711	59.45
1000.874	65.65
1001.036	22.05
1001.199	88.9
1001.361	46.66
1001.524	61.19
1001.687	91.42
1001.849	23.02
1002.012	76.11
1002.174	87.54
1002.337	77.66
1002.499	42.59
1002.661	73.79
1002.824	20.7
1002.986	20.5
1003.149	44.72
1003.311	51.7
1003.473	108.08
1003.636	35.04
1003.798	76.3
1003.96	79.02
1004.123	78.63
1004.285	22.25
1004.447	40.07
1004.609	46.66
1004.771	102.27
1004.933	6.94
1005.096	37.94
1005.258	-5.26
1005.42	41.43
1005.582	76.5
1005.744	53.05
1005.906	20.5
1006.068	38.91
1006.23	14.11
1006.392	5.78
1006.554	5.01
1006.716	70.88
1006.878	60.03
1007.04	22.83
1007.202	24.77
1007.363	29.61
1007.525	46.85
1007.687	47.82
1007.849	85.02
1008.011	20.7
1008.172	31.16
1008.334	27.67
1008.496	43.56
1008.658	16.05
1008.819	12.56
1008.981	-5.84
1009.143	28.84
1009.304	33.49
1009.466	51.5
1009.627	78.63
1009.789	111.76
1009.95	46.47
1010.112	39.3
1010.273	51.31
1010.435	43.75
1010.596	44.53
1010.758	23.6
1010.919	46.27
1011.081	15.85
1011.242	20.7
1011.403	53.83
1011.565	38.14
1011.726	34.07
1011.887	11.21
1012.049	36.39
1012.21	65.45
1012.371	80.57
1012.532	0.94
1012.693	49.95
1012.855	18.18
1013.016	41.04
1013.177	71.85
1013.338	47.24
1013.499	83.28
1013.66	80.37
1013.821	63.13
1013.982	57.7
1014.143	36.59
1014.304	14.11
1014.465	68.36
1014.626	49.18
1014.787	5.2
1014.948	125.71
1015.109	-40.91
1015.27	92
1015.431	38.33
1015.592	4.04
1015.752	72.43
1015.913	43.75
1016.074	35.81
1016.235	14.69
1016.395	38.33
1016.556	26.12
1016.717	35.04
1016.877	98.78
1017.038	3.46
1017.199	30.19
1017.359	27.09
1017.52	46.47
1017.681	20.12
1017.841	-1.78
1018.002	20.31
1018.162	7.91
1018.323	84.83
1018.483	22.44
1018.644	15.66
1018.804	-10.88
1018.964	6.75
1019.125	8.88
1019.285	41.24
1019.446	3.46
1019.606	-1.97
1019.766	-32.97
1019.926	43.37
1020.087	49.18
1020.247	13.34
1020.407	50.73
1020.567	61.39
1020.728	30.77
1020.888	7.72
1021.048	-11.66
1021.208	-5.84
1021.368	13.34
1021.528	39.69
1021.688	47.05
1021.848	42.4
1022.008	19.54
1022.168	22.83
1022.328	23.6
1022.488	43.17
1022.648	8.69
1022.808	11.79
1022.968	28.84
1023.128	-9.72
1023.288	5.2
1023.448	20.5
1023.608	28.25
1023.767	52.47
1023.927	-14.76
1024.087	-5.65
1024.247	-17.08
1024.406	-0.42
1024.566	-16.11
1024.726	7.52
1024.885	-6.04
1025.045	31.55
1025.205	26.51
1025.364	-0.03
1025.524	30.19
1025.683	19.15
1025.843	21.09
1026.003	29.42
1026.162	71.85
1026.321	42.4
1026.481	13.14
1026.64	16.44
1026.8	25.93
1026.959	48.99
1027.119	30.58
1027.278	-1.19
1027.437	14.31
1027.597	49.76
1027.756	44.72
1027.915	21.28
1028.074	56.54
1028.234	-16.89
1028.393	43.56
1028.552	-16.69
1028.711	-47.69
1028.87	41.62
1029.03	9.07
1029.189	28.64
1029.348	-42.46
1029.507	-0.81
1029.666	14.31
1029.825	-44.59
1029.984	-3.91
1030.143	25.15
1030.302	13.72
1030.461	-21.15
1030.62	22.64
1030.779	31.74
1030.938	-10.69
1031.097	-33.55
1031.255	30.77
1031.414	54.99
1031.573	54.02
1031.732	-43.43
1031.891	11.4
1032.049	46.08
1032.208	31.94
1032.367	-17.08
1032.525	9.07
1032.684	14.31
1032.843	15.08
1033.001	-45.18
1033.16	142.57
1033.319	30.77
1033.477	27.48
1033.636	-2.74
1033.794	-49.44
1033.953	23.41
1034.111	47.05
1034.27	-9.91
1034.428	34.07
1034.587	-32.97
1034.745	30.39
1034.903	4.04
1035.062	22.05
1035.22	-49.83
1035.378	51.7
1035.537	-23.86
1035.695	43.56
1035.853	-2.55
1036.011	38.14
1036.17	14.89
1036.328	-46.53
1036.486	14.69
1036.644	0.74
1036.802	-69.2
1036.96	-9.14
1037.119	3.07
1037.277	-7.78
1037.435	-33.94
1037.593	-2.55
1037.751	-12.43
1037.909	38.14
1038.067	38.14
