Data from oakcork_FLMT105791__27__17-27-02-066.txt Node

Date: Mon Mar 20 17:27:02 GMT 2023
User: antho
Spectrometer: FLMT10579
Trigger mode: 0
Integration Time (sec): 1.000000E-1
Scans to average: 10
Electric dark correction enabled: true
Nonlinearity correction enabled: false
Boxcar width: 0
XAxis mode: Wavelengths
Number of Pixels in Spectrum: 3648
>>>>>Begin Spectral Data<<<<<
345.248	-162.62
345.464	-162.62
345.681	-162.62
345.898	-160.68
346.114	-150.02
346.331	-38.23
346.548	53.02
346.764	-19.83
346.981	-0.26
347.197	-27.58
347.414	-10.91
347.631	5.75
347.847	68.33
348.064	-17.7
348.28	30.74
348.497	-44.82
348.713	1.49
348.93	29.19
349.146	14.08
349.363	5.75
349.579	18.34
349.796	31.32
350.012	-2.97
350.229	27.64
350.445	-17.5
350.661	-9.95
350.878	-23.51
351.094	21.44
351.311	6.91
351.527	14.08
351.743	-25.83
351.96	32.29
352.176	36.55
352.392	15.44
352.609	18.54
352.825	0.71
353.041	11.95
353.257	-6.46
353.474	18.92
353.69	18.73
353.906	29.58
354.122	-25.06
354.339	49.34
354.555	19.7
354.771	15.44
354.987	49.73
355.203	69.49
355.42	9.43
355.636	-18.86
355.852	0.32
356.068	17.37
356.284	-23.9
356.5	47.4
356.716	14.27
356.932	14.47
357.148	47.98
357.364	-19.83
357.58	46.43
357.796	45.85
358.012	56.9
358.228	34.23
358.444	-34.16
358.66	35
358.876	45.27
359.092	-5.3
359.308	31.71
359.524	27.06
359.74	-0.26
359.956	-0.06
360.172	11.56
360.388	59.03
360.604	14.27
360.819	102.62
361.035	25.7
361.251	31.71
361.467	-21.18
361.683	53.6
361.898	29.38
362.114	28.8
362.33	11.95
362.546	54.57
362.762	23.38
362.977	-0.06
363.193	-3.55
363.409	37.91
363.624	-9.75
363.84	16.6
364.056	1.1
364.271	17.57
364.487	12.53
364.703	9.04
364.918	3.62
365.134	10.98
365.35	-12.27
365.565	80.73
365.781	32.68
365.996	6.33
366.212	79.37
366.427	45.47
366.643	8.27
366.858	34.62
367.074	8.85
367.289	68.33
367.505	113.67
367.72	-28.16
367.936	4.78
368.151	49.53
368.367	36.94
368.582	46.24
368.798	29.19
369.013	51.08
369.228	27.84
369.444	42.56
369.659	90.03
369.874	42.75
370.09	67.17
370.305	-33.58
370.52	0.9
370.736	79.18
370.951	22.41
371.166	58.64
371.381	92.35
371.597	67.75
371.812	10.79
372.027	-8.4
372.242	26.87
372.458	86.73
372.673	4
372.888	22.8
373.103	30.35
373.318	108.63
373.533	35.58
373.749	42.17
373.964	-26.8
374.179	68.13
374.394	-13.63
374.609	73.95
374.824	-7.81
375.039	83.44
375.254	7.1
375.469	81.89
375.684	20.86
375.899	55.54
376.114	26.87
376.329	33.45
376.544	70.46
376.759	24.15
376.974	4.59
377.189	16.79
377.404	21.05
377.619	17.37
377.834	7.69
378.049	4.39
378.264	-21.18
378.478	46.05
378.693	16.6
378.908	53.99
379.123	38.1
379.338	87.7
379.553	25.32
379.767	24.35
379.982	42.17
380.197	46.05
380.412	30.93
380.626	38.1
380.841	97.78
381.056	74.33
381.271	85.18
381.485	-1.81
381.7	26.67
381.915	34.03
382.129	17.95
382.344	47.4
382.559	23.96
382.773	77.24
382.988	-20.99
383.202	33.84
383.417	4.2
383.632	120.64
383.846	41.01
384.061	23.19
384.275	21.05
384.49	51.86
384.704	77.43
384.919	37.13
385.133	32.68
385.348	69.68
385.562	-3.16
385.777	101.27
385.991	13.5
386.206	40.04
386.42	3.62
386.634	90.8
386.849	47.79
387.063	54.57
387.277	-14.98
387.492	17.57
387.706	25.9
387.92	30.16
388.135	65.81
388.349	54.18
388.563	47.98
388.778	52.05
388.992	45.47
389.206	35.39
389.42	111.73
389.635	71.62
389.849	57.67
390.063	90.03
390.277	47.02
390.491	120.25
390.706	74.53
390.92	68.91
391.134	61.74
391.348	73.95
391.562	5.55
391.776	74.33
391.99	25.7
392.205	59.42
392.419	23.38
392.633	45.66
392.847	89.06
393.061	31.13
393.275	95.84
393.489	41.01
393.703	46.82
393.917	88.67
394.131	17.95
394.345	71.62
394.559	82.08
394.773	30.74
394.986	61.93
395.2	50.31
395.414	82.67
395.628	40.62
395.842	72.98
396.056	39.46
396.27	4.2
396.484	53.8
396.697	96.42
396.911	100.88
397.125	79.76
397.339	84.41
397.553	78.21
397.766	138.08
397.98	87.51
398.194	107.08
398.408	90.22
398.621	123.93
398.835	121.61
399.049	90.8
399.262	130.71
399.476	98.55
399.69	120.25
399.903	133.04
400.117	83.44
400.331	105.53
400.544	69.3
400.758	180.9
400.971	107.85
401.185	135.17
401.398	61.74
401.612	154.16
401.826	105.53
402.039	123.74
402.253	76.27
402.466	115.41
402.68	100.88
402.893	99.91
403.106	106.5
403.32	102.04
403.533	92.16
403.747	104.56
403.96	104.56
404.174	134.78
404.387	90.42
404.6	112.89
404.814	164.04
405.027	110.95
405.24	94.48
405.454	102.23
405.667	142.34
405.88	73.37
406.094	116.18
406.307	130.91
406.52	130.52
406.733	89.25
406.947	64.07
407.16	170.43
407.373	123.35
407.586	71.04
407.799	88.48
408.012	141.56
408.226	115.22
408.439	177.99
408.652	47.21
408.865	113.28
409.078	167.72
409.291	157.65
409.504	84.8
409.717	150.09
409.93	122.77
410.143	139.43
410.357	73.37
410.57	96.81
410.783	108.63
410.996	113.47
411.209	130.13
411.421	152.61
411.634	128.2
411.847	95.84
412.06	113.28
412.273	113.67
412.486	114.25
412.699	194.65
412.912	120.64
413.125	167.91
413.338	116.96
413.55	147.38
413.763	102.62
413.976	160.55
414.189	116.57
414.402	124.32
414.615	193.49
414.827	100.88
415.04	149.7
415.253	153.96
415.466	148.73
415.678	205.31
415.891	136.14
416.104	141.37
416.316	116.38
416.529	112.7
416.742	160.36
416.954	173.15
417.167	158.42
417.38	142.73
417.592	184.58
417.805	134.01
418.017	92.16
418.23	177.21
418.442	129.36
418.655	159.58
418.868	131.68
419.08	170.63
419.293	214.8
419.505	160.36
419.718	156.87
419.93	180.31
420.142	115.41
420.355	199.5
420.567	205.89
420.78	169.85
420.992	147.96
421.205	210.73
421.417	132.65
421.629	132.46
421.842	122.19
422.054	113.86
422.266	185.16
422.479	167.53
422.691	141.76
422.903	164.43
423.115	124.9
423.328	140.01
423.54	160.36
423.752	180.12
423.964	119.67
424.177	176.44
424.389	151.83
424.601	250.84
424.813	175.28
425.025	202.4
425.238	199.3
425.45	190.2
425.662	152.41
425.874	452.14
426.086	148.54
426.298	165.59
426.51	166.56
426.722	171.98
426.934	170.63
427.146	212.09
427.358	104.75
427.57	209.57
427.782	130.33
427.994	163.85
428.206	137.5
428.418	125.1
428.63	175.86
428.842	174.7
429.054	161.33
429.266	185.16
429.478	141.95
429.69	162.3
429.902	134.59
430.114	190.97
430.325	181.09
430.537	111.15
430.749	168.11
430.961	101.65
431.173	138.85
431.384	152.22
431.596	107.47
431.808	162.68
432.02	193.68
432.231	200.27
432.443	238.44
432.655	189.42
432.867	128
433.078	178.96
433.29	288.43
433.502	244.64
433.713	244.83
433.925	214.8
434.136	237.47
434.348	171.98
434.56	135.17
434.771	247.16
434.983	125.87
435.194	167.33
435.406	162.88
435.617	226.43
435.829	243.67
436.04	240.38
436.252	252.39
436.463	262.27
436.675	221.78
436.886	220.42
437.098	213.06
437.309	289.59
437.521	201.82
437.732	211.51
437.943	213.06
438.155	228.36
438.366	158.61
438.578	286.88
438.789	216.54
439	259.36
439.211	216.16
439.423	243.09
439.634	214.41
439.845	270.6
440.057	247.93
440.268	261.49
440.479	203.18
440.69	235.73
440.902	194.26
441.113	211.31
441.324	217.51
441.535	235.14
441.746	321.36
441.957	204.73
442.168	246.96
442.38	267.89
442.591	289.01
442.802	225.46
443.013	221.97
443.224	290.94
443.435	255.68
443.646	246.96
443.857	251.42
444.068	228.56
444.279	263.24
444.49	323.88
444.701	275.83
444.912	358.37
445.123	310.12
445.334	280.48
445.545	295.59
445.756	272.93
445.967	256.65
446.178	266.92
446.388	294.24
446.599	304.7
446.81	306.06
447.021	252
447.232	297.14
447.443	321.17
447.653	273.89
447.864	339.19
448.075	301.21
448.286	324.66
448.496	283.39
448.707	320.59
448.918	294.62
449.129	372.12
449.339	259.75
449.55	297.92
449.761	265.37
449.971	330.27
450.182	287.26
450.393	308.96
450.603	294.82
450.814	340.35
451.024	338.02
451.235	366.7
451.446	352.36
451.656	347.71
451.867	284.36
452.077	336.47
452.288	377.36
452.498	391.3
452.709	289.39
452.919	344.61
453.13	301.6
453.34	351.59
453.55	270.02
453.761	343.45
453.971	303.54
454.182	345.19
454.392	343.26
454.602	388.01
454.813	332.41
455.023	369.61
455.233	283.58
455.444	326.79
455.654	255.49
455.864	326.98
456.075	293.85
456.285	302.37
456.495	330.47
456.705	324.46
456.916	375.03
457.126	390.34
457.336	329.31
457.546	273.89
457.756	317.29
457.967	386.27
458.177	314.97
458.387	329.5
458.597	293.85
458.807	323.69
459.017	312.64
459.227	354.3
459.437	336.86
459.647	357.4
459.857	360.31
460.068	322.72
460.278	379.68
460.488	327.56
460.698	443.81
460.908	374.06
461.117	307.41
461.327	307.8
461.537	358.37
461.747	348.29
461.957	353.33
462.167	437.22
462.377	389.37
462.587	385.3
462.797	392.66
463.007	360.31
463.216	402.54
463.426	401.77
463.636	366.12
463.846	345.39
464.056	354.69
464.265	419.2
464.475	321.17
464.685	367.28
464.895	385.1
465.104	364.96
465.314	404.87
465.524	348.68
465.733	336.09
465.943	453.5
466.153	452.53
466.362	396.73
466.572	383.17
466.782	380.45
466.991	405.45
467.201	437.03
467.41	357.4
467.62	402.74
467.829	387.04
468.039	416.88
468.249	386.07
468.458	394.4
468.668	415.72
468.877	432.19
469.086	449.43
469.296	460.67
469.505	369.41
469.715	489.92
469.924	426.37
470.134	453.11
470.343	440.52
470.552	392.08
470.762	422.89
470.971	397.12
471.18	431.99
471.39	397.31
471.599	413.39
471.808	420.95
472.018	388.98
472.227	474.03
472.436	494.96
472.645	447.49
472.855	409.32
473.064	480.23
473.273	446.91
473.482	458.92
473.691	500
473.901	477.52
474.11	467.83
474.319	537.78
474.528	450.59
474.737	494.96
474.946	499.42
475.155	489.34
475.364	504.26
475.573	500.38
475.783	497.28
475.992	511.23
476.201	544.95
476.41	470.74
476.619	452.14
476.828	469.58
477.037	484.5
477.245	449.62
477.454	547.66
477.663	520.15
477.872	503.68
478.081	581.76
478.29	506.2
478.499	611.98
478.708	539.52
478.917	622.25
479.125	543.59
479.334	534.1
479.543	509.68
479.752	555.8
479.961	555.8
480.169	597.45
480.378	554.83
480.587	697.62
480.796	585.25
481.004	585.05
481.213	612.95
481.422	593.19
481.63	579.63
481.839	596.29
482.048	640.85
482.256	582.15
482.465	629.61
482.674	637.95
482.882	607.33
483.091	685.8
483.299	605.78
483.508	669.91
483.716	608.3
483.925	642.59
484.134	617.99
484.342	609.85
484.551	691.81
484.759	656.74
484.967	678.44
485.176	694.52
485.384	654.03
485.593	636.78
485.801	652.09
486.01	630
486.218	599.2
486.426	577.88
486.635	578.27
486.843	564.51
487.051	590.28
487.26	591.64
487.468	624
487.676	688.32
487.885	636.78
488.093	702.46
488.301	671.66
488.509	681.73
488.717	684.44
488.926	671.66
489.134	651.51
489.342	668.94
489.55	634.46
489.758	671.27
489.967	649.96
490.175	773.37
490.383	662.55
490.591	770.08
490.799	713.12
491.007	759.04
491.215	733.85
491.423	715.25
491.631	705.76
491.839	749.35
492.047	761.75
492.255	664.29
492.463	665.65
492.671	690.45
492.879	756.13
493.087	718.93
493.295	748.96
493.503	751.48
493.711	785.97
493.919	796.43
494.127	772.41
494.334	773.57
494.542	720.87
494.75	752.84
494.958	785
495.166	796.43
495.374	787.32
495.581	764.27
495.789	790.04
495.997	834.99
496.205	769.11
496.412	754.19
496.62	765.43
496.828	788.29
497.035	813.48
497.243	835.95
497.451	788.29
497.658	800.5
497.866	821.23
498.074	863.08
498.281	796.04
498.489	864.82
498.696	813.09
498.904	801.86
499.112	776.67
499.319	861.72
499.527	820.65
499.734	836.73
499.942	782.87
500.149	793.52
500.357	830.72
500.564	778.99
500.771	801.27
500.979	764.46
501.186	785.77
501.394	838.86
501.601	803.79
501.808	833.24
502.016	804.18
502.223	817.55
502.43	801.47
502.638	781.32
502.845	777.25
503.052	862.11
503.26	830.92
503.467	886.33
503.674	808.64
503.881	838.47
504.089	931.47
504.296	865.4
504.503	773.76
504.71	825.1
504.917	807.86
505.125	835.57
505.332	827.43
505.539	859.98
505.746	895.82
505.953	899.5
506.16	880.71
506.367	949.68
506.574	946.2
506.781	919.07
506.988	851.84
507.195	892.53
507.402	867.73
507.609	943.1
507.816	840.99
508.023	869.09
508.23	851.84
508.437	832.66
508.644	872.57
508.851	931.08
509.058	893.69
509.265	894.66
509.472	935.35
509.679	987.27
509.885	908.03
510.092	945.42
510.299	906.67
510.506	896.4
510.713	952.01
510.92	901.83
511.126	926.82
511.333	944.07
511.54	954.72
511.746	996.18
511.953	979.91
512.16	1014.78
512.367	975.84
512.573	947.36
512.78	939.61
512.987	936.9
513.193	960.73
513.4	882.65
513.606	899.31
513.813	936.32
514.02	912.29
514.226	1018.66
514.433	989.6
514.639	904.54
514.846	943.68
515.052	944.45
515.259	954.14
515.465	962.47
515.672	966.73
515.878	1023.31
516.085	967.12
516.291	1000.25
516.497	944.65
516.704	958.02
516.91	855.52
517.117	867.34
517.323	809.22
517.529	862.89
517.736	895.44
517.942	884.39
518.148	879.35
518.354	922.37
518.561	930.7
518.767	910.74
518.973	958.6
519.179	973.13
519.386	937.28
519.592	924.11
519.798	938.25
520.004	1065.93
520.21	967.12
520.417	1038.03
520.623	1059.15
520.829	1073.3
521.035	1035.51
521.241	1055.86
521.447	1086.47
521.653	1118.63
521.859	1016.53
522.065	1079.69
522.271	1158.93
522.477	1094.41
522.683	1139.17
522.889	1090.73
523.095	1101.19
523.301	1087.05
523.507	1049.27
523.713	1083.37
523.919	1060.9
524.125	1131.23
524.331	1093.25
524.537	1186.64
524.742	1153.7
524.948	1197.68
525.154	1199.23
525.36	1261.42
525.566	1155.83
525.772	1234.49
525.977	1131.61
526.183	1183.34
526.389	1180.63
526.595	1124.83
526.8	1148.66
527.006	1080.46
527.212	1044.62
527.417	1067.68
527.623	1043.46
527.829	1116.69
528.034	1108.36
528.24	1132
528.446	1122.12
528.651	1211.24
528.857	1218.61
529.062	1256.58
529.268	1219.96
529.473	1214.73
529.679	1208.92
529.884	1296.3
530.09	1271.5
530.295	1256
530.501	1254.45
530.706	1237.01
530.912	1200.97
531.117	1273.63
531.323	1225.58
531.528	1267.43
531.733	1260.65
531.939	1241.66
532.144	1271.69
532.35	1264.52
532.555	1301.72
532.76	1280.6
532.966	1252.12
533.171	1264.33
533.376	1241.86
533.581	1219.57
533.787	1262
533.992	1293.2
534.197	1303.66
534.402	1273.05
534.607	1253.48
534.813	1367.4
535.018	1275.76
535.223	1306.37
535.428	1313.35
535.633	1320.52
535.838	1335.24
536.043	1333.69
536.249	1404.6
536.454	1332.14
536.659	1340.08
536.864	1330.01
537.069	1311.8
537.274	1357.52
537.479	1310.64
537.684	1336.4
537.889	1293.59
538.094	1421.46
538.299	1299.79
538.504	1390.65
538.708	1335.44
538.913	1358.1
539.118	1356.55
539.323	1356.17
539.528	1307.54
539.733	1334.85
539.938	1397.24
540.142	1379.03
540.347	1336.4
540.552	1320.13
540.757	1322.65
540.962	1321.1
541.166	1271.69
541.371	1282.15
541.576	1286.42
541.781	1232.75
541.985	1336.21
542.19	1315.48
542.395	1394.33
542.599	1426.5
542.804	1353.84
543.008	1422.43
543.213	1344.35
543.418	1325.55
543.622	1337.37
543.827	1319.74
544.031	1394.92
544.236	1385.03
544.44	1397.43
544.645	1425.92
544.849	1362.95
545.054	1395.88
545.258	1471.64
545.463	1477.45
545.667	1381.93
545.872	1432.89
546.076	1437.54
546.281	1431.34
546.485	1394.53
546.689	1419.91
546.894	1464.08
547.098	1405.57
547.302	1362.95
547.507	1409.64
547.711	1447.42
547.915	1441.22
548.119	1342.99
548.324	1349.58
548.528	1469.51
548.732	1398.98
548.936	1439.09
549.141	1431.15
549.345	1409.06
549.549	1396.27
549.753	1429.21
549.957	1506.51
550.161	1486.56
550.366	1444.32
550.57	1410.61
550.774	1448.78
550.978	1434.25
551.182	1449.16
551.386	1410.03
551.59	1417.78
551.794	1400.53
551.998	1443.35
552.202	1407.51
552.406	1381.55
552.61	1428.82
552.814	1449.16
553.018	1486.56
553.222	1414.29
553.426	1429.21
553.63	1487.33
553.833	1420.3
554.037	1365.85
554.241	1442.38
554.445	1445.29
554.649	1459.43
554.853	1414.87
555.056	1472.03
555.26	1476.68
555.464	1428.43
555.668	1465.44
555.871	1465.25
556.075	1447.61
556.279	1404.6
556.483	1359.07
556.686	1433.66
556.89	1416.42
557.094	1455.36
557.297	1355.39
557.501	1444.32
557.704	1339.12
557.908	1417
558.112	1374.57
558.315	1483.26
558.519	1376.32
558.722	1393.17
558.926	1367.79
559.129	1334.85
559.333	1315.29
559.536	1350.55
559.74	1301.14
559.943	1319.16
560.147	1285.45
560.35	1342.99
560.553	1320.52
560.757	1278.09
560.96	1367.98
561.164	1334.27
561.367	1411.19
561.57	1362.75
561.774	1397.43
561.977	1327.69
562.18	1319.16
562.384	1415.65
562.587	1319.16
562.79	1336.6
562.993	1323.42
563.197	1339.31
563.4	1389.68
563.603	1393.56
563.806	1405.96
564.009	1289.52
564.212	1376.12
564.416	1276.92
564.619	1351.71
564.822	1268.01
565.025	1347.64
565.228	1271.5
565.431	1307.34
565.634	1252.32
565.837	1287.97
566.04	1277.5
566.243	1252.12
566.446	1148.86
566.649	1276.73
566.852	1218.8
567.055	1244.37
567.258	1258.32
567.461	1319.55
567.664	1291.65
567.867	1243.21
568.07	1261.81
568.273	1259.1
568.475	1304.63
568.678	1245.92
568.881	1228.49
569.084	1275.18
569.287	1137.81
569.489	1170.17
569.692	1254.45
569.895	1212.79
570.098	1181.99
570.3	1139.94
570.503	1135.1
570.706	1128.71
570.909	1121.54
571.111	1125.41
571.314	1148.28
571.516	1122.51
571.719	1150.79
571.922	1141.69
572.124	1152.93
572.327	1162.23
572.529	1107.59
572.732	1099.84
572.935	1155.83
573.137	1214.15
573.34	1127.74
573.542	1166.87
573.745	1145.18
573.947	1144.98
574.15	1108.56
574.352	1101.19
574.554	1180.24
574.757	1084.14
574.959	1084.14
575.162	1104.29
575.364	1088.02
575.566	1181.99
575.769	1049.66
575.971	1113.21
576.173	1007.81
576.376	1067.29
576.578	1105.84
576.78	1125.99
576.982	1023.5
577.185	1097.51
577.387	1033.77
577.589	1043.65
577.791	1084.34
577.993	1093.06
578.196	1068.84
578.398	1090.34
578.6	1090.73
578.802	1020.6
579.004	1034.35
579.206	1021.56
579.408	1053.73
579.61	1021.18
579.812	1100.61
580.014	1051.98
580.216	1019.24
580.418	1059.15
580.62	1016.72
580.822	978.75
581.024	1023.11
581.226	1113.4
581.428	1047.91
581.63	1131.42
581.832	1045.59
582.034	1098.29
582.236	1069.61
582.438	1076.59
582.64	1107.2
582.841	1121.73
583.043	1158.74
583.245	1085.69
583.447	1087.63
583.649	1081.82
583.85	1109.72
584.052	1137.04
584.254	1019.63
584.456	1139.56
584.657	1023.5
584.859	1067.68
585.061	1063.8
585.262	1049.66
585.464	1001.8
585.666	1106.62
585.867	1033.38
586.069	1117.47
586.27	1035.9
586.472	1030.48
586.674	1049.27
586.875	1013.04
587.077	1009.94
587.278	1031.45
587.48	1025.83
587.681	1115.14
587.883	1049.85
588.084	1002
588.285	1013.04
588.487	960.53
588.688	978.75
588.89	984.75
589.091	924.69
589.292	959.18
589.494	914.03
589.695	901.64
589.896	873.15
590.098	839.64
590.299	895.24
590.5	859.4
590.702	901.64
590.903	899.31
591.104	980.88
591.305	977.39
591.507	994.44
591.708	953.37
591.909	915.39
592.11	998.9
592.311	962.08
592.512	955.88
592.714	897.76
592.915	886.52
593.116	940.19
593.317	944.84
593.518	908.22
593.719	940.38
593.92	950.46
594.121	981.07
594.322	940.97
594.523	964.6
594.724	902.02
594.925	936.51
595.126	943.68
595.327	947.36
595.528	953.17
595.729	945.03
595.929	929.53
596.13	954.53
596.331	946
596.532	954.72
596.733	996.96
596.934	936.9
597.135	949.88
597.335	964.6
597.536	930.7
597.737	986.5
597.938	917.33
598.138	958.21
598.339	947.75
598.54	956.85
598.74	953.95
598.941	949.68
599.142	1003.35
599.342	968.67
599.543	894.08
599.744	940.19
599.944	923.14
600.145	894.66
600.345	936.32
600.546	1007.81
600.746	961.31
600.947	1025.83
601.147	938.83
601.348	979.91
601.548	915.97
601.749	959.76
601.949	889.43
602.15	907.83
602.35	944.84
602.551	946.78
602.751	896.02
602.951	918.49
603.152	875.48
603.352	918.88
603.552	958.79
603.753	1001.41
603.953	936.9
604.153	925.47
604.354	928.76
604.554	943.48
604.754	938.25
604.954	892.72
605.155	956.08
605.355	911.52
605.555	985.14
605.755	978.55
605.955	933.41
606.155	983.59
606.356	909
606.556	950.27
606.756	945.42
606.956	886.72
607.156	983.01
607.356	884
607.556	926.24
607.756	917.72
607.956	943.68
608.156	916.17
608.356	871.41
608.556	926.63
608.756	912.48
608.956	891.37
609.156	909.19
609.356	863.08
609.556	879.94
609.755	902.6
609.955	885.36
610.155	905.7
610.355	904.35
610.555	877.03
610.755	907.06
610.954	832.27
611.154	905.9
611.354	938.83
611.554	870.64
611.753	852.42
611.953	831.3
612.153	891.95
612.352	888.27
612.552	819.29
612.752	795.46
612.951	839.44
613.151	849.32
613.351	816.77
613.55	862.3
613.75	891.95
613.949	863.27
614.149	847.97
614.348	850.87
614.548	830.72
614.747	825.69
614.947	846.61
615.146	763.69
615.346	874.7
615.545	854.36
615.745	855.33
615.944	865.4
616.144	857.27
616.343	832.66
616.542	822.78
616.742	833.44
616.941	803.02
617.14	765.04
617.34	811.93
617.539	802.44
617.738	768.92
617.938	894.47
618.137	826.27
618.336	784.81
618.535	838.67
618.734	831.3
618.934	839.05
619.133	842.74
619.332	820.45
619.531	776.67
619.73	798.95
619.929	844.09
620.128	857.46
620.328	884
620.527	781.9
620.726	807.09
620.925	827.04
621.124	838.47
621.323	829.56
621.522	761.17
621.721	775.31
621.92	745.47
622.119	844.48
622.318	753.42
622.517	783.45
622.715	760.39
622.914	739.47
623.113	775.12
623.312	729.78
623.511	810.19
623.71	774.73
623.909	778.99
624.107	818.9
624.306	730.17
624.505	735.4
624.704	721.84
624.902	750.51
625.101	831.3
625.3	778.22
625.499	717.38
625.697	780.93
625.896	744.89
626.095	771.24
626.293	725.91
626.492	734.43
626.69	777.64
626.889	723.97
627.088	801.86
627.286	749.54
627.485	726.1
627.683	755.36
627.882	745.86
628.08	660.42
628.279	698.01
628.477	789.65
628.676	705.76
628.874	750.9
629.073	697.81
629.271	691.61
629.469	735.79
629.668	726.88
629.866	710.21
630.065	709.24
630.263	725.13
630.461	699.17
630.66	737.53
630.858	730.94
631.056	723.39
631.254	751.48
631.453	687.54
631.651	744.7
631.849	723.39
632.047	737.92
632.245	721.84
632.444	726.49
632.642	724.74
632.84	754.58
633.038	708.47
633.236	709.83
633.434	685.22
633.632	684.25
633.83	709.63
634.028	738.31
634.227	716.22
634.425	770.27
634.623	711.76
634.821	732.69
635.019	731.33
635.216	688.71
635.414	752.06
635.612	721.26
635.81	713.12
636.008	737.92
636.206	703.63
636.404	733.66
636.602	690.64
636.8	717.77
636.997	741.02
637.195	758.65
637.393	721.45
637.591	762.91
637.789	735.21
637.986	729.97
638.184	717.96
638.382	757.68
638.58	738.11
638.777	781.51
638.975	731.91
639.173	720.29
639.37	709.83
639.568	741.6
639.765	744.89
639.963	706.92
640.161	751.87
640.358	732.3
640.556	707.89
640.753	677.86
640.951	684.44
641.148	707.89
641.346	672.43
641.543	688.9
641.741	719.51
641.938	674.95
642.136	723.78
642.333	685.99
642.531	742.18
642.728	737.53
642.925	718.16
643.123	702.27
643.32	725.33
643.517	670.49
643.715	715.06
643.912	670.49
644.109	698.59
644.306	706.34
644.504	696.26
644.701	690.45
644.898	687.74
645.095	625.55
645.293	679.6
645.49	706.92
645.687	691.03
645.884	711.38
646.081	642.59
646.278	678.44
646.475	663.52
646.672	674.18
646.87	664.1
647.067	690.06
647.264	669.33
647.461	648.79
647.658	630.39
647.855	651.89
648.052	648.79
648.249	573.43
648.446	598.61
648.642	631.94
648.839	616.05
649.036	640.66
649.233	587.57
649.43	602.49
649.627	578.27
649.824	602.88
650.021	601.52
650.217	576.33
650.414	586.02
650.611	655.58
650.808	632.71
651.004	613.73
651.201	656.93
651.398	699.36
651.595	627.68
651.791	609.85
651.988	659.64
652.185	601.52
652.381	644.14
652.578	562.38
652.775	601.71
652.971	616.44
653.168	623.22
653.364	623.8
653.561	566.84
653.757	598.81
653.954	637.56
654.15	592.41
654.347	662.94
654.543	626.71
654.74	568.78
654.936	599.78
655.133	610.24
655.329	599
655.525	610.63
655.722	641.82
655.918	555.8
656.115	593.58
656.311	548.24
656.507	534.29
656.704	455.63
656.9	514.72
657.096	519.57
657.292	502.9
657.489	544.95
657.685	537.97
657.881	545.33
658.077	541.46
658.273	551.73
658.47	631.36
658.666	553.28
658.862	586.8
659.058	553.47
659.254	595.71
659.45	533.52
659.646	570.13
659.842	563.55
660.038	619.93
660.234	532.74
660.43	584.47
660.626	633.1
660.822	617.21
661.018	620.51
661.214	562.19
661.41	510.07
661.606	610.82
661.802	602.68
661.998	605.98
662.194	563.74
662.39	613.15
662.586	609.08
662.781	582.53
662.977	615.66
663.173	608.3
663.369	568.2
663.564	587.38
663.76	631.16
663.956	565.48
664.152	618.57
664.347	501.55
664.543	593.96
664.739	572.07
664.934	527.9
665.13	484.11
665.326	592.22
665.521	605.78
665.717	516.08
665.912	515.11
666.108	482.75
666.304	518.4
666.499	556.76
666.695	460.47
666.89	538.75
667.086	581.56
667.281	581.56
667.477	590.67
667.672	555.41
667.867	558.51
668.063	579.05
668.258	522.08
668.454	555.99
668.649	631.55
668.844	572.65
669.04	567.42
669.235	541.46
669.43	528.87
669.626	493.41
669.821	500.77
670.016	509.1
670.211	517.82
670.407	509.49
670.602	548.82
670.797	535.45
670.992	577.69
671.187	513.75
671.382	582.92
671.578	514.92
671.773	540.68
671.968	486.24
672.163	538.17
672.358	538.36
672.553	522.47
672.748	535.07
672.943	576.91
673.138	554.83
673.333	571.1
673.528	477.72
673.723	550.76
673.918	520.53
674.113	482.95
674.308	599.2
674.503	555.8
674.698	553.28
674.892	518.4
675.087	559.86
675.282	540.68
675.477	523.83
675.672	530.42
675.867	487.6
676.061	506.39
676.256	499.8
676.451	485.27
676.646	516.66
676.84	483.92
677.035	474.03
677.23	472.29
677.424	504.45
677.619	511.23
677.814	560.83
678.008	557.54
678.203	461.05
678.397	500.58
678.592	508.52
678.787	554.63
678.981	505.62
679.176	518.02
679.37	492.05
679.565	477.72
679.759	512.01
679.954	525.96
680.148	546.88
680.342	561.61
680.537	540.3
680.731	499.61
680.926	543.98
681.12	536.03
681.314	479.85
681.509	493.22
681.703	501.16
681.897	524.02
682.092	483.53
682.286	465.51
682.48	542.82
682.674	543.2
682.869	487.79
683.063	525.77
683.257	577.5
683.451	465.7
683.645	522.67
683.839	496.12
684.034	489.73
684.228	512.98
684.422	452.53
684.616	472.48
684.81	512.78
685.004	467.06
685.198	496.32
685.392	530.61
685.586	486.43
685.78	509.3
685.974	519.37
686.168	499.22
686.362	553.86
686.556	481.78
686.75	425.4
686.944	425.6
687.138	492.44
687.331	367.09
687.525	408.35
687.719	351.2
687.913	415.14
688.107	395.76
688.301	377.55
688.494	434.12
688.688	387.82
688.882	350.62
689.076	363.79
689.269	396.34
689.463	469.58
689.657	401.19
689.85	389.95
690.044	413
690.238	411.26
690.431	423.27
690.625	389.95
690.818	441.49
691.012	430.83
691.205	446.91
691.399	391.69
691.593	440.52
691.786	496.32
691.98	464.15
692.173	483.33
692.366	491.67
692.56	475.58
692.753	568.58
692.947	440.9
693.14	544.75
693.333	514.53
693.527	441.87
693.72	518.98
693.914	488.57
694.107	457.57
694.3	495.73
694.493	492.63
694.687	543.01
694.88	470.74
695.073	542.23
695.266	528.09
695.46	514.72
695.653	564.51
695.846	518.98
696.039	444
696.232	520.53
696.425	568
696.618	575.17
696.812	526.93
697.005	608.11
697.198	675.92
697.391	602.49
697.584	604.04
697.777	652.48
697.97	616.44
698.163	631.36
698.356	636.2
698.549	729.39
698.742	678.05
698.935	616.83
699.127	649.38
699.32	639.11
699.513	618.76
699.706	670.3
699.899	668.75
700.092	630.78
700.285	712.54
700.477	612.95
700.67	664.49
700.863	700.14
701.056	759.81
701.248	707.89
701.441	735.98
701.634	668.94
701.826	791.97
702.019	682.31
702.212	748.77
702.404	715.25
702.597	706.92
702.79	702.46
702.982	748.19
703.175	769.31
703.367	779.57
703.56	798.17
703.752	853.78
703.945	813.09
704.137	834.21
704.33	877.8
704.522	861.92
704.715	818.13
704.907	873.54
705.1	901.44
705.292	892.14
705.484	873.54
705.677	924.88
705.869	920.62
706.061	951.43
706.254	979.13
706.446	925.47
706.638	934.38
706.831	1005.87
707.023	953.56
707.215	1021.56
707.407	1037.06
707.599	1012.26
707.792	1063.41
707.984	1041.33
708.176	1055.86
708.368	1044.81
708.56	1053.34
708.752	1039.39
708.944	1046.56
709.136	1102.94
709.329	1054.11
709.521	1187.8
709.713	1147.11
709.905	1119.02
710.097	1221.71
710.289	1126.96
710.481	1131.23
710.672	1192.64
710.864	1179.27
711.056	1222.67
711.248	1193.03
711.44	1225.77
711.632	1212.79
711.824	1252.32
712.016	1288.94
712.207	1257.16
712.399	1260.45
712.591	1338.54
712.783	1273.44
712.975	1313.15
713.166	1272.85
713.358	1317.61
713.55	1360.62
713.741	1349.97
713.933	1393.95
714.125	1326.33
714.316	1367.02
714.508	1383.1
714.7	1406.93
714.891	1374.57
715.083	1451.3
715.274	1372.63
715.466	1399.76
715.657	1474.93
715.849	1352.68
716.04	1424.95
716.232	1348.22
716.423	1418.55
716.615	1360.23
716.806	1343.57
716.998	1322.65
717.189	1266.07
717.381	1222.09
717.572	1204.46
717.763	1258.9
717.955	1223.45
718.146	1230.81
718.337	1159.32
718.528	1138.59
718.72	1103.33
718.911	1188.96
719.102	1130.26
719.293	1180.05
719.485	1141.11
719.676	1133.16
719.867	1143.24
720.058	1110.11
720.249	1145.95
720.44	1187.41
720.632	1195.94
720.823	1233.52
721.014	1318.39
721.205	1339.12
721.396	1390.85
721.587	1472.03
721.778	1466.8
721.969	1516.2
722.16	1532.09
722.351	1540.81
722.542	1644.27
722.733	1684.57
722.924	1579.17
723.115	1627.8
723.305	1623.15
723.496	1607.84
723.687	1509.61
723.878	1546.43
724.069	1541.19
724.26	1559.79
724.45	1538.48
724.641	1540.81
724.832	1575.49
725.023	1539.64
725.213	1560.18
725.404	1496.83
725.595	1527.24
725.785	1516.59
725.976	1589.05
726.167	1588.28
726.357	1562.12
726.548	1680.69
726.739	1622.76
726.929	1668.87
727.12	1705.1
727.31	1715.37
727.501	1657.64
727.691	1691.54
727.882	1681.86
728.072	1712.08
728.263	1740.37
728.453	1763.81
728.644	1782.02
728.834	1738.43
729.024	1746.37
729.215	1741.92
729.405	1747.73
729.596	1837.24
729.786	1803.92
729.976	1873.86
730.167	1844.22
730.357	1822.71
730.547	1833.56
730.737	1862.23
730.928	1946.9
731.118	2001.73
731.308	1909.7
731.498	1931.79
731.688	2014.71
731.879	2002.31
732.069	2055.21
732.259	2078.84
732.449	2103.45
732.639	2162.54
732.829	2172.62
733.019	2203.04
733.209	2285.18
733.399	2243.53
733.589	2294.1
733.779	2336.53
733.969	2355.71
734.159	2423.33
734.349	2455.68
734.539	2461.69
734.729	2468.86
734.919	2509.74
735.109	2519.04
735.299	2459.56
735.488	2540.35
735.678	2528.92
735.868	2524.07
736.058	2516.13
736.248	2491.14
736.437	2426.43
736.627	2466.14
736.817	2589.37
737.007	2506.44
737.196	2562.24
737.386	2565.92
737.576	2558.37
737.765	2632.38
737.955	2622.11
738.144	2719.76
738.334	2655.43
738.524	2610.49
738.713	2687.6
738.903	2667.45
739.092	2729.45
739.282	2690.5
739.471	2728.09
739.661	2660.67
739.85	2715.88
740.04	2729.45
740.229	2764.32
740.419	2780.98
740.608	2774.2
740.797	2793.58
740.987	2849.96
741.176	2854.61
741.365	2773.04
741.555	2780.98
741.744	2871.85
741.933	2810.63
742.123	2859.84
742.312	2880.96
742.501	2911.18
742.69	2909.05
742.88	2867.59
743.069	2972.99
743.258	2876.5
743.447	2961.94
743.636	2960.39
743.825	2938.31
744.014	2960.78
744.204	2971.63
744.393	2947.22
744.582	2987.32
744.771	3028.59
744.96	2980.16
745.149	3043.9
745.338	2951.87
745.527	2988.87
745.716	3023.75
745.905	2956.91
746.094	3047.39
746.283	3019.68
746.471	3010.38
746.66	3128.18
746.849	3072.57
747.038	3079.35
747.227	3004.57
747.416	3053.2
747.604	3061.53
747.793	3041.38
747.982	3031.3
748.171	3072.57
748.359	3111.71
748.548	3058.24
748.737	3096.02
748.926	3042.74
749.114	2996.24
749.303	3028.4
749.491	3034.99
749.68	2949.16
749.869	3076.84
750.057	3009.41
750.246	3067.54
750.434	3044.48
750.623	3011.35
750.811	3011.15
751	3072.77
751.188	3029.95
751.377	3012.9
751.565	3022.2
751.754	2978.8
751.942	2990.42
752.131	3038.67
752.319	2961.17
752.507	2944.89
752.696	3048.74
752.884	3046.03
753.072	2989.65
753.261	3011.35
753.449	3014.25
753.637	2971.82
753.825	3038.28
754.014	2988.1
754.202	3009.8
754.39	3088.65
754.578	3020.45
754.766	2963.3
754.955	2953.81
755.143	3060.17
755.331	2985.77
755.519	2987.52
755.707	2991.39
755.895	2929.59
756.083	2941.21
756.271	2962.33
756.459	2966.21
756.647	3001.08
756.835	2947.8
757.023	2923.39
757.211	2933.66
757.399	2935.98
757.587	2948.19
757.775	2883.09
757.963	2882.12
758.151	2920.48
758.339	2871.08
758.526	2885.41
758.714	2912.73
758.902	2829.61
759.09	2734.68
759.278	2558.17
759.465	2337.5
759.653	2038.35
759.841	1897.88
760.028	1579.17
760.216	1361.98
760.404	1299.79
760.591	1069.03
760.779	897.76
760.967	764.85
761.154	616.44
761.342	681.34
761.529	714.48
761.717	753.42
761.905	748.19
762.092	785.19
762.28	719.9
762.467	712.34
762.655	659.06
762.842	691.81
763.029	699.94
763.217	712.34
763.404	712.73
763.592	744.12
763.779	673.21
763.966	755.74
764.154	791.01
764.341	825.3
764.528	839.64
764.716	894.27
764.903	957.63
765.09	966.35
765.277	1013.81
765.465	1170.56
765.652	1212.99
765.839	1279.83
766.026	1419.33
766.213	1455.36
766.4	1535.58
766.588	1696
766.775	1719.25
766.962	1781.63
767.149	1860.88
767.336	1986.62
767.523	1928.69
767.71	2067.02
767.897	2189.86
768.084	2234.42
768.271	2260.77
768.458	2330.71
768.645	2390.39
768.832	2355.51
769.019	2401.24
769.206	2422.36
769.392	2466.34
769.579	2540.74
769.766	2519.42
769.953	2488.42
770.14	2548.29
770.327	2545.77
770.513	2581.23
770.7	2667.25
770.887	2563.79
771.073	2623.47
771.26	2615.91
771.447	2561.08
771.634	2562.05
771.82	2675.78
772.007	2630.25
772.193	2577.74
772.38	2607.58
772.567	2600.41
772.753	2618.24
772.94	2666.28
773.126	2664.15
773.313	2679.07
773.499	2609.52
773.686	2655.63
773.872	2592.27
774.059	2612.62
774.245	2571.35
774.432	2596.34
774.618	2521.36
774.804	2609.13
774.991	2565.54
775.177	2613
775.363	2610.49
775.55	2610.68
775.736	2526.4
775.922	2574.84
776.109	2588.79
776.295	2587.62
776.481	2568.83
776.667	2594.4
776.853	2552.36
777.04	2530.27
777.226	2510.51
777.412	2627.73
777.598	2553.91
777.784	2530.86
777.97	2526.98
778.156	2538.22
778.342	2534.15
778.528	2512.84
778.715	2481.45
778.901	2486.49
779.087	2523.3
779.272	2464.01
779.458	2458.2
779.644	2496.95
779.83	2477.57
780.016	2536.28
780.202	2448.13
780.388	2437.47
780.574	2393.49
780.76	2433.01
780.946	2473.89
781.131	2460.14
781.317	2417.13
781.503	2387.68
781.689	2406.47
781.874	2499.66
782.06	2402.98
782.246	2427.2
782.432	2387.68
782.617	2380.31
782.803	2516.32
782.989	2369.66
783.174	2415.38
783.36	2326.65
783.545	2392.91
783.731	2421.97
783.916	2317.73
784.102	2367.14
784.288	2337.5
784.473	2332.65
784.659	2328.78
784.844	2347.18
785.029	2322.38
785.215	2306.5
785.4	2273.95
785.586	2367.14
785.771	2243.53
785.956	2337.88
786.142	2279.18
786.327	2267.17
786.512	2279.37
786.698	2285.38
786.883	2201.49
787.068	2223.77
787.254	2280.34
787.439	2254.77
787.624	2218.15
787.809	2200.71
787.994	2179.79
788.18	2299.33
788.365	2172.42
788.55	2176.88
788.735	2211.17
788.92	2158.86
789.105	2170.68
789.29	2175.72
789.475	2108.87
789.66	2169.13
789.845	2142.78
790.03	2070.9
790.215	2147.62
790.4	2172.81
790.585	2189.86
790.77	2133.67
790.955	2069.54
791.14	2110.62
791.325	2168.94
791.51	2017.62
791.695	2085.04
791.879	2131.93
792.064	2027.69
792.249	2131.93
792.434	2098.8
792.618	2090.86
792.803	2109.07
792.988	2090.66
793.173	2096.86
793.357	2131.93
793.542	2060.05
793.727	2113.52
793.911	2136.39
794.096	2084.07
794.281	2122.63
794.465	2203.23
794.65	2116.62
794.834	2152.66
795.019	2157.5
795.203	2155.57
795.388	2175.52
795.572	2166.61
795.757	2114.69
795.941	2137.74
796.126	2110.42
796.31	2056.56
796.494	2138.52
796.679	2087.56
796.863	2079.04
797.048	2180.95
797.232	2158.67
797.416	2131.74
797.601	2104.61
797.785	2181.34
797.969	2192.38
798.153	2111.2
798.338	2154.79
798.522	2195.87
798.706	2119.34
798.89	2150.92
799.074	2227.83
799.258	2212.92
799.443	2149.56
799.627	2133.87
799.811	2212.14
799.995	2142.39
800.179	2108.87
800.363	2127.47
800.547	2174.36
800.731	2174.36
800.915	2070.51
801.099	2093.96
801.283	2103.64
801.467	2138.71
801.651	2090.27
801.835	2187.73
802.019	2138.52
802.202	2158.47
802.386	2073.42
802.57	2065.86
802.754	2125.15
802.938	2101.51
803.121	2093.96
803.305	2181.53
803.489	2108.29
803.673	2112.94
803.856	2151.89
804.04	2151.69
804.224	2145.1
804.407	2126.12
804.591	2067.22
804.775	2148.4
804.958	2159.25
805.142	2252.83
805.326	2131.54
805.509	2134.45
805.693	2164.87
805.876	2195.29
806.06	2158.67
806.243	2149.56
806.427	2175.91
806.61	2221.44
806.794	2133.29
806.977	2184.24
807.16	2178.04
807.344	2155.57
807.527	2152.85
807.71	2136.39
807.894	2147.43
808.077	2153.82
808.26	2129.41
808.444	2124.18
808.627	2170.49
808.81	2107.91
808.993	2072.26
809.177	2064.31
809.36	2136.58
809.543	2087.95
809.726	2007.74
809.909	1993.98
810.092	1992.82
810.276	1992.04
810.459	2025.56
810.642	2018.2
810.825	1965.11
811.008	1965.69
811.191	1901.18
811.374	1906.8
811.557	1917.45
811.74	1993.98
811.923	1871.73
812.106	1856.03
812.289	1849.25
812.472	1822.52
812.654	1874.05
812.837	1809.15
813.02	1788.03
813.203	1747.34
813.386	1674.49
813.569	1650.66
813.751	1604.74
813.934	1642.33
814.117	1646.01
814.3	1600.68
814.482	1588.28
814.665	1515.43
814.848	1492.18
815.03	1454.59
815.213	1421.46
815.396	1464.28
815.578	1420.49
815.761	1417.39
815.943	1466.99
816.126	1364.3
816.309	1344.15
816.491	1317.22
816.674	1265.1
816.856	1290.68
817.039	1284.67
817.221	1336.6
817.403	1315.87
817.586	1333.3
817.768	1358.3
817.951	1283.51
818.133	1270.34
818.315	1294.94
818.498	1290.68
818.68	1364.5
818.862	1356.36
819.045	1348.22
819.227	1346.87
819.409	1311.8
819.591	1351.71
819.774	1376.7
819.956	1290.87
820.138	1375.35
820.32	1402.08
820.502	1411.19
820.684	1475.32
820.866	1458.27
821.048	1506.32
821.231	1529.76
821.413	1533.83
821.595	1488.69
821.777	1506.71
821.959	1453.81
822.141	1524.73
822.323	1442.19
822.505	1382.52
822.686	1364.88
822.868	1273.63
823.05	1207.76
823.232	1198.07
823.414	1134.33
823.596	1205.24
823.778	1161.06
823.96	1177.34
824.141	1183.92
824.323	1215.51
824.505	1268.2
824.687	1326.52
824.868	1355.58
825.05	1448.78
825.232	1445.68
825.413	1498.96
825.595	1466.99
825.777	1432.89
825.958	1485.2
826.14	1453.23
826.321	1495.28
826.503	1462.92
826.685	1454.59
826.866	1514.84
827.048	1473.77
827.229	1441.03
827.411	1383.29
827.592	1395.69
827.773	1368.95
827.955	1327.3
828.136	1310.64
828.318	1322.84
828.499	1332.14
828.68	1279.25
828.862	1328.27
829.043	1328.07
829.224	1349.97
829.406	1291.26
829.587	1271.5
829.768	1287
829.949	1326.72
830.131	1311.6
830.312	1354.81
830.493	1307.73
830.674	1346.87
830.855	1292.62
831.036	1309.47
831.218	1366.82
831.399	1422.43
831.58	1341.83
831.761	1337.76
831.942	1313.93
832.123	1297.65
832.304	1280.41
832.485	1305.4
832.666	1278.09
832.847	1330.01
833.028	1339.12
833.209	1334.47
833.389	1290.29
833.57	1274.99
833.751	1293.78
833.932	1322.84
834.113	1342.6
834.294	1298.24
834.475	1341.63
834.655	1376.9
834.836	1377.87
835.017	1375.15
835.198	1284.48
835.378	1350.93
835.559	1393.37
835.74	1309.47
835.92	1339.31
836.101	1324.59
836.281	1354.81
836.462	1356.75
836.643	1366.63
836.823	1412.93
837.004	1377.28
837.184	1408.87
837.365	1422.82
837.545	1426.69
837.726	1388.52
837.906	1419.52
838.087	1348.03
838.267	1370.5
838.448	1323.62
838.628	1392.98
838.808	1401.12
838.989	1425.92
839.169	1324
839.349	1407.32
839.53	1429.98
839.71	1406.15
839.89	1381.55
840.07	1456.14
840.251	1346.28
840.431	1402.47
840.611	1398.4
840.791	1338.54
840.971	1404.41
841.151	1374.96
841.332	1361.59
841.512	1417.39
841.692	1304.63
841.872	1369.73
842.052	1338.54
842.232	1394.53
842.412	1324
842.592	1361.78
842.772	1351.32
842.952	1368.76
843.132	1359.46
843.312	1341.63
843.492	1279.44
843.672	1360.23
843.851	1286.03
844.031	1337.95
844.211	1326.33
844.391	1308.7
844.571	1339.7
844.751	1342.8
844.93	1295.14
845.11	1316.64
845.29	1355.78
845.47	1351.9
845.649	1320.52
845.829	1355.58
846.009	1317.8
846.188	1354.03
846.368	1335.82
846.547	1348.61
846.727	1371.67
846.907	1280.99
847.086	1314.12
847.266	1342.41
847.445	1327.88
847.625	1279.25
847.804	1297.27
847.984	1333.5
848.163	1298.04
848.343	1282.93
848.522	1310.83
848.701	1329.43
848.881	1255.61
849.06	1306.18
849.239	1274.02
849.419	1317.42
849.598	1255.22
849.777	1220.16
849.957	1230.42
850.136	1164.36
850.315	1179.66
850.494	1185.28
850.674	1148.47
850.853	1254.64
851.032	1201.36
851.211	1244.96
851.39	1219.19
851.569	1181.21
851.748	1197.68
851.927	1247.67
852.107	1222.09
852.286	1157.58
852.465	1146.53
852.644	1232.36
852.823	1202.33
853.002	1215.7
853.181	1190.9
853.359	1239.53
853.538	1141.88
853.717	1229.26
853.896	1119.02
854.075	1044.23
854.254	1089.57
854.433	1024.08
854.611	1059.93
854.79	992.31
854.969	1062.83
855.148	1050.24
855.327	1017.5
855.505	1094.8
855.684	1045.59
855.863	1073.3
856.041	1055.47
856.22	1095.77
856.399	1098.68
856.577	1153.51
856.756	1151.18
856.934	1256.58
857.113	1273.44
857.291	1142.85
857.47	1148.86
857.648	1138.59
857.827	1151.38
858.005	1209.11
858.184	1130.26
858.362	1218.8
858.541	1151.18
858.719	1144.79
858.898	1106.43
859.076	1155.25
859.254	1164.94
859.433	1140.72
859.611	1136.26
859.789	1086.66
859.967	1162.42
860.146	1198.84
860.324	1089.96
860.502	1108.75
860.68	1090.93
860.859	1093.83
861.037	1121.34
861.215	1102.36
861.393	1118.44
861.571	1130.06
861.749	1100.61
861.927	1107.01
862.105	1138.39
862.283	1079.69
862.461	1067.87
862.639	1069.03
862.817	1057.6
862.995	1135.29
863.173	1075.04
863.351	1091.12
863.529	1086.66
863.707	1127.74
863.885	1107.98
864.063	1036.87
864.241	1060.9
864.418	1129.87
864.596	1037.65
864.774	1029.7
864.952	1060.12
865.129	1097.32
865.307	1015.56
865.485	1003.55
865.663	1069.81
865.84	977.97
866.018	1019.43
866.196	908.42
866.373	905.7
866.551	881.29
866.728	861.92
866.906	903.77
867.084	889.62
867.261	936.9
867.439	946.97
867.616	1001.03
867.794	960.15
867.971	990.76
868.149	994.63
868.326	1053.15
868.503	1011.88
868.681	993.08
868.858	990.56
869.035	952.98
869.213	989.98
869.39	977.39
869.567	1056.83
869.745	978.17
869.922	989.02
870.099	1019.05
870.276	1013.23
870.454	992.7
870.631	958.79
870.808	976.23
870.985	1000.83
871.162	1024.86
871.339	1020.6
871.517	927.6
871.694	946.78
871.871	970.42
872.048	957.05
872.225	941.74
872.402	964.02
872.579	932.44
872.756	961.31
872.933	923.14
873.11	930.12
873.287	958.79
873.463	966.15
873.64	912.48
873.817	943.29
873.994	901.64
874.171	930.31
874.348	976.81
874.524	879.16
874.701	926.82
874.878	863.08
875.055	938.83
875.231	890.4
875.408	949.1
875.585	860.56
875.762	900.86
875.938	913.84
876.115	894.08
876.291	881.1
876.468	883.81
876.645	853.2
876.821	862.11
876.998	866.18
877.174	880.32
877.351	860.37
877.527	876.45
877.704	874.7
877.88	876.06
878.057	833.63
878.233	934.18
878.409	863.08
878.586	881.68
878.762	877.61
878.938	889.04
879.115	812.71
879.291	856.49
879.467	784.42
879.644	819.68
879.82	870.83
879.996	804.76
880.172	785.97
880.349	829.17
880.525	881.1
880.701	838.28
880.877	791.97
881.053	832.85
881.229	828.4
881.405	864.82
881.581	806.31
881.757	821.04
881.933	825.3
882.109	847.77
882.285	838.09
882.461	810.77
882.637	831.69
882.813	780.93
882.989	798.76
883.165	874.9
883.341	801.86
883.517	854.17
883.693	843.32
883.869	831.5
884.044	803.41
884.22	828.4
884.396	848.74
884.572	823.94
884.747	861.14
884.923	841.57
885.099	835.76
885.275	851.84
885.45	792.36
885.626	813.87
885.801	760.39
885.977	816.97
886.153	759.23
886.328	819.49
886.504	785.77
886.679	821.42
886.855	768.53
887.03	829.95
887.206	824.33
887.381	822.39
887.557	828.01
887.732	860.56
887.908	835.57
888.083	863.27
888.258	796.24
888.434	799.14
888.609	846.22
888.784	875.29
888.96	809.8
889.135	789.46
889.31	795.27
889.485	823.36
889.661	798.76
889.836	885.36
890.011	808.06
890.186	810.96
890.361	800.11
890.537	821.42
890.712	822.2
890.887	790.23
891.062	810.19
891.237	897.95
891.412	787.91
891.587	840.8
891.762	872.38
891.937	860.75
892.112	757.29
892.287	799.92
892.462	750.32
892.637	721.64
892.812	724.55
892.987	750.51
893.161	721.06
893.336	753.03
893.511	742.18
893.686	759.81
893.861	758.26
894.035	743.54
894.21	742.57
894.385	669.14
894.56	731.72
894.734	679.99
894.909	696.07
895.084	664.49
895.258	690.26
895.433	661.97
895.608	640.27
895.782	628.65
895.957	617.6
896.131	641.82
896.306	566.65
896.48	574.01
896.655	586.99
896.829	541.65
897.004	545.53
897.178	544.75
897.353	526.15
897.527	584.86
897.701	574.98
897.876	509.88
898.05	581.95
898.224	559.67
898.399	588.93
898.573	555.6
898.747	463.38
898.921	503.68
899.096	410.68
899.27	434.12
899.444	440.52
899.618	464.35
899.792	487.02
899.967	471.32
900.141	495.73
900.315	422.69
900.489	464.15
900.663	467.64
900.837	485.08
901.011	431.41
901.185	522.08
901.359	499.8
901.533	489.92
901.707	484.5
901.881	474.62
902.055	420.75
902.229	470.55
902.403	521.31
902.576	466.09
902.75	479.07
902.924	609.27
903.098	511.43
903.272	583.31
903.446	612.95
903.619	575.75
903.793	606.75
903.967	550.76
904.14	622.45
904.314	618.38
904.488	595.13
904.661	622.06
904.835	592.03
905.009	648.99
905.182	651.51
905.356	606.56
905.529	608.11
905.703	585.25
905.876	571.88
906.05	554.25
906.223	554.05
906.397	472.87
906.57	489.15
906.744	467.06
906.917	476.75
907.09	493.8
907.264	485.47
907.437	446.91
907.61	423.47
907.784	412.62
907.957	462.99
908.13	403.9
908.304	468.03
908.477	391.11
908.65	422.5
908.823	389.17
908.996	484.5
909.17	404.87
909.343	410.68
909.516	434.9
909.689	397.5
909.862	385.69
910.035	436.25
910.208	372.32
910.381	388.79
910.554	499.8
910.727	407.39
910.9	402.35
911.073	404.48
911.246	424.05
911.419	458.34
911.592	422.89
911.765	412.62
911.938	373.87
912.11	418.62
912.283	406.03
912.456	450.01
912.629	433.93
912.802	409.32
912.974	358.37
913.147	334.73
913.32	293.07
913.493	319.81
913.665	363.41
913.838	367.28
914.01	332.99
914.183	357.4
914.356	353.91
914.528	403.7
914.701	419.4
914.873	405.45
915.046	344.61
915.218	318.46
915.391	294.43
915.563	291.72
915.736	348.1
915.908	378.32
916.081	356.62
916.253	359.92
916.425	358.76
916.598	354.49
916.77	361.47
916.942	301.99
917.115	281.45
917.287	368.83
917.459	334.15
917.632	297.92
917.804	277.58
917.976	332.41
918.148	326.21
918.32	333.96
918.493	380.65
918.665	390.34
918.837	364.57
919.009	399.05
919.181	407.19
919.353	390.92
919.525	360.69
919.697	373.09
919.869	376.97
920.041	435.87
920.213	490.12
920.385	432.77
920.557	389.56
920.729	389.37
920.901	380.45
921.073	385.3
921.244	363.99
921.416	399.05
921.588	394.02
921.76	374.64
921.932	412.42
922.103	364.57
922.275	376.19
922.447	397.89
922.619	326.79
922.79	377.74
922.962	337.06
923.134	369.8
923.305	315.16
923.477	290.75
923.648	312.45
923.82	316.32
923.991	301.21
924.163	282.23
924.335	302.18
924.506	278.35
924.677	352.36
924.849	306.64
925.02	322.72
925.192	341.9
925.363	322.33
925.535	345.97
925.706	326.21
925.877	358.17
926.049	295.79
926.22	323.11
926.391	345.19
926.562	333.76
926.734	291.52
926.905	317.1
927.076	263.04
927.247	307.61
927.419	225.65
927.59	265.95
927.761	272.15
927.932	246.58
928.103	269.24
928.274	250.84
928.445	232.63
928.616	208.02
928.787	228.17
928.958	248.51
929.129	231.66
929.3	227.2
929.471	204.92
929.642	158.03
929.813	135.56
929.984	207.44
930.155	112.7
930.326	190.78
930.496	152.22
930.667	91.38
930.838	151.06
931.009	130.13
931.18	118.31
931.35	142.92
931.521	139.43
931.692	102.43
931.863	41.78
932.033	106.3
932.204	90.42
932.374	104.75
932.545	60.38
932.716	101.27
932.886	98.17
933.057	48.76
933.227	51.47
933.398	108.24
933.568	15.82
933.739	11.95
933.909	43.14
934.08	73.56
934.25	-2.39
934.421	22.99
934.591	38.3
934.761	11.75
934.932	-17.89
935.102	29.97
935.272	34.23
935.443	18.73
935.613	5.17
935.783	30.16
935.953	-10.72
936.123	144.08
936.294	11.17
936.464	41.98
936.634	18.34
936.804	-6.46
936.974	-0.84
937.144	38.1
937.314	31.13
937.484	-1.42
937.655	17.57
937.825	74.53
937.995	22.99
938.165	61.35
938.334	26.09
938.504	66.97
938.674	16.99
938.844	45.66
939.014	113.67
939.184	81.7
939.354	121.03
939.524	64.26
939.694	57.09
939.863	49.53
940.033	125.29
940.203	127.61
940.373	78.98
940.542	111.92
940.712	51.47
940.882	99.33
941.051	106.3
941.221	97.2
941.391	122.19
941.56	66.39
941.73	64.45
941.899	157.84
942.069	69.49
942.238	87.9
942.408	43.72
942.577	133.23
942.747	72.4
942.916	3.62
943.086	43.72
943.255	68.52
943.425	70.07
943.594	55.35
943.763	-3.16
943.933	7.1
944.102	-21.57
944.271	66.2
944.441	62.32
944.61	35.97
944.779	54.96
944.948	119.09
945.117	21.05
945.287	61.74
945.456	-12.08
945.625	18.34
945.794	62.13
945.963	36.75
946.132	70.07
946.301	15.44
946.47	60.19
946.639	13.5
946.808	21.05
946.977	60.97
947.146	91.38
947.315	35
947.484	56.7
947.653	61.16
947.822	11.17
947.991	19.12
948.16	108.82
948.329	82.08
948.498	48.95
948.666	44.11
948.835	81.7
949.004	3.42
949.173	10.01
949.341	59.03
949.51	89.25
949.679	98.94
949.847	74.72
950.016	109.21
950.185	137.88
950.353	24.15
950.522	65.81
950.69	78.02
950.859	50.12
951.028	97
951.196	53.6
951.365	25.32
951.533	57.67
951.701	97
951.87	100.88
952.038	16.4
952.207	71.43
952.375	126.45
952.543	45.85
952.712	57.67
952.88	35
953.048	105.72
953.217	59.61
953.385	64.26
953.553	98.75
953.721	15.44
953.89	51.08
954.058	9.62
954.226	21.44
954.394	115.8
954.562	0.9
954.73	47.21
954.898	18.73
955.067	72.98
955.235	51.08
955.403	84.6
955.571	115.22
955.739	80.15
955.907	7.88
956.075	15.24
956.243	22.99
956.41	64.26
956.578	-4.13
956.746	14.27
956.914	27.64
957.082	75.5
957.25	64.07
957.418	44.69
957.585	42.37
957.753	108.63
957.921	14.66
958.089	48.57
958.256	77.82
958.424	70.46
958.592	72.4
958.759	28.8
958.927	66.39
959.095	50.12
959.262	47.79
959.43	47.4
959.597	34.23
959.765	24.15
959.932	-0.06
960.1	70.85
960.267	76.47
960.435	55.35
960.602	89.45
960.77	33.26
960.937	20.47
961.104	70.27
961.272	11.17
961.439	33.07
961.606	97.2
961.774	85.38
961.941	35.97
962.108	68.72
962.275	56.12
962.443	89.06
962.61	94.87
962.777	128.97
962.944	93.9
963.111	71.43
963.278	80.34
963.446	81.5
963.613	60
963.78	85.57
963.947	88.87
964.114	87.7
964.281	171.01
964.448	73.95
964.615	43.14
964.782	76.27
964.949	83.44
965.116	108.82
965.282	128.58
965.449	79.76
965.616	71.62
965.783	97.97
965.95	96.81
966.117	18.73
966.283	91
966.45	67.94
966.617	82.86
966.784	113.08
966.95	112.7
967.117	109.02
967.284	41.78
967.45	45.66
967.617	102.43
967.784	97.97
967.95	123.16
968.117	56.12
968.283	118.7
968.45	173.92
968.616	90.61
968.783	122
968.949	91.58
969.116	123.55
969.282	87.32
969.449	90.03
969.615	97
969.781	18.54
969.948	61.35
970.114	30.93
970.28	139.82
970.447	83.83
970.613	97.2
970.779	92.55
970.945	105.14
971.112	86.15
971.278	94.29
971.444	106.3
971.61	121.8
971.776	66.2
971.942	103.4
972.108	112.5
972.275	89.64
972.441	111.15
972.607	134.78
972.773	72.59
972.939	90.22
973.105	91.19
973.271	68.52
973.437	73.95
973.602	57.87
973.768	104.95
973.934	87.32
974.1	86.15
974.266	7.49
974.432	77.24
974.598	69.49
974.763	84.8
974.929	62.71
975.095	146.6
975.261	52.05
975.426	34.81
975.592	75.5
975.758	142.73
975.923	21.64
976.089	65.62
976.255	96.42
976.42	105.92
976.586	103.59
976.751	123.93
976.917	161.91
977.082	86.15
977.248	33.45
977.413	28.03
977.579	68.91
977.744	97
977.91	52.63
978.075	64.84
978.24	101.27
978.406	55.73
978.571	63.87
978.736	41.2
978.902	74.72
979.067	52.05
979.232	8.46
979.397	85.77
979.563	144.66
979.728	38.68
979.893	68.52
980.058	29.77
980.223	102.04
980.388	92.35
980.554	62.71
980.719	71.82
980.884	59.61
981.049	141.37
981.214	54.96
981.379	81.5
981.544	51.08
981.709	49.92
981.874	64.45
982.039	53.22
982.204	114.25
982.368	74.92
982.533	48.57
982.698	86.35
982.863	102.62
983.028	65.03
983.193	68.33
983.357	109.79
983.522	61.55
983.687	61.93
983.852	52.63
984.016	60.77
984.181	71.43
984.346	73.37
984.51	97.2
984.675	79.95
984.839	84.41
985.004	69.3
985.168	84.99
985.333	105.14
985.498	68.72
985.662	85.57
985.827	87.7
985.991	52.44
986.155	82.28
986.32	79.18
986.484	144.08
986.649	62.71
986.813	18.54
986.977	77.43
987.142	115.99
987.306	47.6
987.47	46.05
987.634	74.92
987.799	88.67
987.963	62.71
988.127	88.09
988.291	137.69
988.455	50.31
988.62	72.2
988.784	73.75
988.948	88.67
989.112	29
989.276	84.02
989.44	91.97
989.604	39.27
989.768	53.41
989.932	121.41
990.096	39.07
990.26	23.96
990.424	56.51
990.588	66.39
990.752	115.41
990.915	91.97
991.079	70.27
991.243	33.07
991.407	86.54
991.571	68.72
991.734	85.77
991.898	91.77
992.062	155.9
992.226	57.48
992.389	46.24
992.553	13.3
992.717	47.98
992.88	42.95
993.044	84.8
993.207	48.37
993.371	92.74
993.535	92.74
993.698	89.83
993.862	94.29
994.025	90.61
994.189	54.18
994.352	74.92
994.515	64.65
994.679	80.73
994.842	52.63
995.006	99.72
995.169	24.54
995.332	22.22
995.496	100.3
995.659	0.13
995.822	54.38
995.985	34.03
996.149	100.49
996.312	56.12
996.475	106.88
996.638	35.97
996.801	111.34
996.964	156.87
997.128	61.16
997.291	34.62
997.454	50.5
997.617	17.76
997.78	112.5
997.943	44.3
998.106	84.99
998.269	37.91
998.432	41.4
998.595	49.15
998.758	35.78
998.92	22.41
999.083	-22.93
999.246	56.32
999.409	19.5
999.572	-14.6
999.735	28.42
999.897	56.51
1000.06	35
1000.223	34.42
1000.386	71.62
1000.548	58.25
1000.711	47.79
1000.874	68.33
1001.036	4.2
1001.199	106.69
1001.361	35.78
1001.524	49.73
1001.687	67.75
1001.849	52.25
1002.012	53.41
1002.174	58.45
1002.337	86.35
1002.499	39.65
1002.661	86.54
1002.824	10.98
1002.986	25.9
1003.149	42.56
1003.311	29.58
1003.473	98.36
1003.636	18.34
1003.798	56.9
1003.96	76.47
1004.123	31.52
1004.285	18.54
1004.447	27.84
1004.609	29.77
1004.771	84.99
1004.933	-2.58
1005.096	15.82
1005.258	-12.85
1005.42	5.36
1005.582	84.8
1005.744	52.05
1005.906	-11.88
1006.068	44.88
1006.23	2.65
1006.392	-11.3
1006.554	-0.06
1006.716	78.98
1006.878	52.44
1007.04	-26.22
1007.202	-14.01
1007.363	57.28
1007.525	26.67
1007.687	58.64
1007.849	61.35
1008.011	7.69
1008.172	-1.61
1008.334	19.31
1008.496	76.27
1008.658	-20.8
1008.819	-5.49
1008.981	10.79
1009.143	-8.78
1009.304	22.8
1009.466	54.18
1009.627	95.07
1009.789	118.51
1009.95	29.38
1010.112	24.93
1010.273	45.85
1010.435	-5.49
1010.596	14.66
1010.758	32.68
1010.919	25.12
1011.081	-2.78
1011.242	16.99
1011.403	39.07
1011.565	29.58
1011.726	47.21
1011.887	-24.09
1012.049	47.02
1012.21	63.48
1012.371	94.68
1012.532	-57.22
1012.693	12.14
1012.855	6.33
1013.016	0.13
1013.177	61.74
1013.338	41.98
1013.499	105.92
1013.66	52.44
1013.821	34.42
1013.982	40.82
1014.143	37.91
1014.304	19.89
1014.465	33.84
1014.626	45.47
1014.787	19.31
1014.948	100.88
1015.109	-41.91
1015.27	44.69
1015.431	24.54
1015.592	-16.15
1015.752	78.4
1015.913	15.82
1016.074	22.6
1016.235	13.89
1016.395	16.4
1016.556	15.63
1016.717	21.05
1016.877	47.79
1017.038	23.38
1017.199	62.9
1017.359	15.82
1017.52	14.85
1017.681	-19.44
1017.841	12.34
1018.002	17.95
1018.162	18.54
1018.323	86.35
1018.483	28.03
1018.644	3.81
1018.804	-5.88
1018.964	-1.42
1019.125	-0.45
1019.285	7.88
1019.446	-12.85
1019.606	-28.16
1019.766	-51.6
1019.926	22.8
1020.087	54.38
1020.247	-16.73
1020.407	33.84
1020.567	67.94
1020.728	3.23
1020.888	-19.44
1021.048	14.85
1021.208	22.02
1021.368	4
1021.528	62.9
1021.688	50.89
1021.848	47.4
1022.008	33.07
1022.168	-4.13
1022.328	19.12
1022.488	46.24
1022.648	27.64
1022.808	5.75
1022.968	20.09
1023.128	3.81
1023.288	6.14
1023.448	-4.91
1023.608	24.54
1023.767	24.54
1023.927	8.46
1024.087	-41.72
1024.247	-32.23
1024.406	-3.55
1024.566	-23.9
1024.726	-2
1024.885	16.99
1025.045	39.65
1025.205	2.26
1025.364	26.87
1025.524	29.97
1025.683	0.9
1025.843	28.8
1026.003	10.59
1026.162	62.52
1026.321	45.27
1026.481	17.76
1026.64	3.81
1026.8	21.83
1026.959	-7.81
1027.119	18.92
1027.278	18.92
1027.437	-17.5
1027.597	15.24
1027.756	41.4
1027.915	24.15
1028.074	36.94
1028.234	7.49
1028.393	36.55
1028.552	4.39
1028.711	-50.25
1028.87	23.96
1029.03	-32.81
1029.189	14.66
1029.348	-56.83
1029.507	-3.75
1029.666	-30.48
1029.825	-17.11
1029.984	-19.05
1030.143	21.25
1030.302	-11.69
1030.461	-43.66
1030.62	-2.97
1030.779	29.77
1030.938	-32.81
1031.097	-15.56
1031.255	21.44
1031.414	54.96
1031.573	40.43
1031.732	-39.2
1031.891	-3.36
1032.049	49.34
1032.208	22.22
1032.367	-17.11
1032.525	-16.92
1032.684	1.87
1032.843	18.92
1033.001	-51.8
1033.16	140.21
1033.319	46.05
1033.477	32.87
1033.636	-0.45
1033.794	-39.4
1033.953	34.42
1034.111	37.13
1034.27	-24.28
1034.428	2.07
1034.587	-18.28
1034.745	27.84
1034.903	5.75
1035.062	47.6
1035.22	-38.04
1035.378	38.68
1035.537	-59.54
1035.695	51.47
1035.853	-28.74
1036.011	41.59
1036.17	3.42
1036.328	-70.01
1036.486	17.57
1036.644	-1.81
1036.802	-83.96
1036.96	-25.64
1037.119	-1.42
1037.277	-5.88
1037.435	-11.11
1037.593	-28.16
1037.751	12.92
1037.909	13.5
1038.067	13.5
