Data from oakcork_FLMT105791__206__17-32-19-056.txt Node

Date: Mon Mar 20 17:32:19 GMT 2023
User: antho
Spectrometer: FLMT10579
Trigger mode: 0
Integration Time (sec): 1.000000E-1
Scans to average: 10
Electric dark correction enabled: true
Nonlinearity correction enabled: false
Boxcar width: 0
XAxis mode: Wavelengths
Number of Pixels in Spectrum: 3648
>>>>>Begin Spectral Data<<<<<
345.248	-156.81
345.464	-156.81
345.681	-156.81
345.898	-141.31
346.114	-155.06
346.331	-13.05
346.548	27.45
346.764	-1.61
346.981	-12.66
347.197	-17.11
347.414	10.98
347.631	-42.11
347.847	47.02
348.064	6.33
348.28	50.5
348.497	-64
348.713	8.27
348.93	18.15
349.146	31.13
349.363	-21.38
349.579	7.49
349.796	-8.4
350.012	-29.71
350.229	23.57
350.445	4.39
350.661	-16.15
350.878	-1.03
351.094	15.44
351.311	17.57
351.527	10.79
351.743	-36.49
351.96	14.27
352.176	39.65
352.392	-1.23
352.609	27.64
352.825	-2.78
353.041	3.81
353.257	3.62
353.474	12.34
353.69	-10.33
353.906	17.57
354.122	-12.27
354.339	33.07
354.555	4.59
354.771	-24.28
354.987	35.78
355.203	53.8
355.42	-32.23
355.636	-24.28
355.852	-25.45
356.068	8.85
356.284	-30.48
356.5	56.51
356.716	12.14
356.932	-17.31
357.148	14.66
357.364	2.84
357.58	41.98
357.796	31.71
358.012	36.75
358.228	-3.16
358.444	-40.17
358.66	25.51
358.876	3.23
359.092	-1.23
359.308	10.98
359.524	6.14
359.74	-16.73
359.956	-5.1
360.172	16.4
360.388	52.63
360.604	-24.28
360.819	54.18
361.035	18.54
361.251	22.6
361.467	-35.13
361.683	29
361.898	32.48
362.114	15.44
362.33	23.19
362.546	22.8
362.762	-15.76
362.977	7.49
363.193	-22.73
363.409	21.64
363.624	-39.01
363.84	-0.65
364.056	-16.92
364.271	18.73
364.487	11.56
364.703	3.23
364.918	-24.67
365.134	-13.63
365.35	2.84
365.565	68.72
365.781	0.71
365.996	34.03
366.212	46.63
366.427	7.3
366.643	-18.47
366.858	-6.46
367.074	-34.94
367.289	55.73
367.505	90.8
367.72	-32.42
367.936	4.39
368.151	19.5
368.367	22.41
368.582	15.82
368.798	0.13
369.013	70.85
369.228	9.43
369.444	3.04
369.659	46.05
369.874	24.74
370.09	54.57
370.305	-41.53
370.52	3.42
370.736	52.05
370.951	8.07
371.166	34.03
371.381	46.24
371.597	42.95
371.812	-40.36
372.027	-26.22
372.242	13.5
372.458	79.18
372.673	-0.26
372.888	7.69
373.103	27.64
373.318	82.67
373.533	36.36
373.749	16.21
373.964	-14.21
374.179	61.35
374.394	-19.05
374.609	43.14
374.824	-19.44
375.039	55.35
375.254	-25.25
375.469	56.7
375.684	27.45
375.899	31.71
376.114	18.92
376.329	30.93
376.544	40.62
376.759	45.66
376.974	4.97
377.189	8.27
377.404	4.59
377.619	37.91
377.834	-46.18
378.049	-34.94
378.264	-23.31
378.478	7.49
378.693	-12.46
378.908	24.54
379.123	-3.94
379.338	56.12
379.553	19.5
379.767	21.64
379.982	46.24
380.197	15.24
380.412	10.01
380.626	33.65
380.841	84.99
381.056	19.31
381.271	80.92
381.485	-14.01
381.7	-20.21
381.915	11.37
382.129	3.42
382.344	15.05
382.559	-7.62
382.773	42.95
382.988	-31.45
383.202	6.72
383.417	-3.55
383.632	76.08
383.846	10.2
384.061	28.61
384.275	1.49
384.49	28.61
384.704	44.3
384.919	16.99
385.133	24.35
385.348	15.24
385.562	-13.24
385.777	45.66
385.991	34.42
386.206	-1.03
386.42	-7.43
386.634	50.89
386.849	18.92
387.063	42.56
387.277	1.1
387.492	-5.88
387.706	-11.69
387.92	-7.81
388.135	27.84
388.349	-5.68
388.563	15.44
388.778	35.58
388.992	29.97
389.206	41.98
389.42	78.02
389.635	-8.59
389.849	41.78
390.063	47.21
390.277	29.77
390.491	53.41
390.706	12.53
390.92	55.93
391.134	10.4
391.348	53.22
391.562	-15.76
391.776	25.12
391.99	-22.35
392.205	41.4
392.419	-17.11
392.633	11.56
392.847	59.61
393.061	11.37
393.275	61.16
393.489	22.41
393.703	27.45
393.917	58.25
394.131	11.37
394.345	14.47
394.559	53.6
394.773	7.1
394.986	15.82
395.2	5.75
395.414	36.17
395.628	-15.37
395.842	3.42
396.056	11.56
396.27	-30.29
396.484	22.02
396.697	22.8
396.911	61.35
397.125	33.65
397.339	76.47
397.553	7.3
397.766	69.49
397.98	63.87
398.194	44.88
398.408	4
398.621	33.07
398.835	44.69
399.049	-2.97
399.262	65.42
399.476	37.13
399.69	54.38
399.903	69.88
400.117	22.8
400.331	20.67
400.544	-20.99
400.758	131.1
400.971	19.12
401.185	56.51
401.398	-1.23
401.612	71.04
401.826	36.75
402.039	41.98
402.253	17.57
402.466	29.58
402.68	4
402.893	30.55
403.106	35.58
403.32	8.27
403.533	48.18
403.747	15.82
403.96	38.49
404.174	57.09
404.387	-11.3
404.6	10.98
404.814	57.67
405.027	25.12
405.24	36.55
405.454	46.63
405.667	36.75
405.88	-16.73
406.094	52.44
406.307	67.75
406.52	36.36
406.733	-12.66
406.947	-18.66
407.16	74.14
407.373	49.53
407.586	7.88
407.799	-30.87
408.012	68.52
408.226	55.54
408.439	63.87
408.652	-4.33
408.865	29.38
409.078	55.73
409.291	21.25
409.504	-0.26
409.717	38.3
409.93	50.7
410.143	70.65
410.357	28.22
410.57	-25.45
410.783	10.4
410.996	62.32
411.209	39.07
411.421	60.38
411.634	30.93
411.847	24.54
412.06	39.27
412.273	37.33
412.486	41.78
412.699	117.35
412.912	27.84
413.125	50.89
413.338	30.93
413.55	43.92
413.763	6.52
413.976	61.93
414.189	22.6
414.402	7.3
414.615	66.2
414.827	5.75
415.04	72.78
415.253	38.1
415.466	71.82
415.678	105.33
415.891	20.28
416.104	43.33
416.316	5.36
416.529	29.19
416.742	51.67
416.954	64.45
417.167	34.23
417.38	38.49
417.592	70.27
417.805	25.7
418.017	-23.7
418.23	59.42
418.442	19.89
418.655	39.07
418.868	57.67
419.08	72.78
419.293	78.6
419.505	46.24
419.718	50.31
419.93	62.13
420.142	29.19
420.355	70.07
420.567	95.26
420.78	58.64
420.992	40.23
421.205	101.07
421.417	-29.71
421.629	19.12
421.842	3.81
422.054	7.3
422.266	49.53
422.479	94.87
422.691	22.22
422.903	64.65
423.115	14.27
423.328	41.4
423.54	43.14
423.752	27.25
423.964	-7.04
424.177	56.7
424.389	19.31
424.601	136.14
424.813	40.23
425.025	69.3
425.238	79.95
425.45	36.75
425.662	28.61
425.874	296.37
426.086	32.87
426.298	54.38
426.51	68.91
426.722	49.34
426.934	27.64
427.146	42.17
427.358	-3.36
427.57	54.18
427.782	20.09
427.994	40.82
428.206	23.38
428.418	-22.35
428.63	52.25
428.842	89.45
429.054	45.08
429.266	62.9
429.478	35.39
429.69	47.98
429.902	-17.89
430.114	64.26
430.325	64.26
430.537	29.58
430.749	31.32
430.961	6.33
431.173	60.38
431.384	74.53
431.596	-33
431.808	21.64
432.02	42.95
432.231	40.04
432.443	61.93
432.655	23.96
432.867	6.72
433.078	56.7
433.29	83.83
433.502	78.4
433.713	80.92
433.925	46.24
434.136	62.9
434.348	-2.58
434.56	-28.93
434.771	118.31
434.983	5.75
435.194	5.55
435.406	23.96
435.617	69.49
435.829	89.25
436.04	74.53
436.252	51.67
436.463	90.61
436.675	45.85
436.886	29.58
437.098	23.96
437.309	79.37
437.521	50.31
437.732	58.64
437.943	46.63
438.155	78.98
438.366	-1.03
438.578	96.81
438.789	61.55
439	90.42
439.211	37.52
439.423	69.68
439.634	71.82
439.845	80.15
440.057	47.02
440.268	61.35
440.479	16.6
440.69	60.58
440.902	44.11
441.113	48.57
441.324	44.88
441.535	40.62
441.746	106.88
441.957	46.24
442.168	43.14
442.38	63.68
442.591	81.12
442.802	25.9
443.013	44.88
443.224	61.35
443.435	20.86
443.646	23.57
443.857	37.13
444.068	42.56
444.279	25.9
444.49	100.3
444.701	43.92
444.912	146.41
445.123	32.1
445.334	77.43
445.545	47.4
445.756	58.64
445.967	33.07
446.178	76.66
446.388	97
446.599	87.32
446.81	64.07
447.021	35
447.232	97.58
447.443	82.67
447.653	8.65
447.864	88.67
448.075	44.88
448.286	78.21
448.496	67.94
448.707	104.17
448.918	37.91
449.129	145.25
449.339	37.33
449.55	74.33
449.761	67.36
449.971	119.48
450.182	58.25
450.393	86.93
450.603	53.6
450.814	67.94
451.024	69.68
451.235	91.38
451.446	111.34
451.656	131.3
451.867	43.14
452.077	77.05
452.288	123.93
452.498	104.17
452.709	69.1
452.919	97
453.13	86.15
453.34	134.4
453.55	46.05
453.761	110.57
453.971	112.12
454.182	95.26
454.392	96.81
454.602	153
454.813	99.72
455.023	121.8
455.233	44.11
455.444	77.05
455.654	38.49
455.864	80.73
456.075	58.06
456.285	66.2
456.495	74.92
456.705	78.02
456.916	139.82
457.126	117.15
457.336	92.35
457.546	32.29
457.756	21.44
457.967	117.15
458.177	53.99
458.387	75.88
458.597	83.05
458.807	73.56
459.017	82.67
459.227	71.43
459.437	90.03
459.647	101.65
459.857	93.71
460.068	82.67
460.278	120.06
460.488	105.53
460.698	130.13
460.908	53.6
461.117	34.03
461.327	51.67
461.537	65.42
461.747	69.68
461.957	86.35
462.167	179.93
462.377	107.66
462.587	96.03
462.797	127.42
463.007	94.29
463.216	117.35
463.426	119.86
463.636	93.9
463.846	61.55
464.056	69.49
464.265	123.55
464.475	41.2
464.685	105.33
464.895	96.62
465.104	91.97
465.314	110.95
465.524	72.2
465.733	75.3
465.943	134.98
466.153	152.03
466.362	106.11
466.572	103.98
466.782	79.57
466.991	93.71
467.201	160.75
467.41	39.27
467.62	85.38
467.829	78.98
468.039	103.59
468.249	76.27
468.458	83.25
468.668	108.05
468.877	117.93
469.086	132.65
469.296	115.6
469.505	68.33
469.715	149.12
469.924	119.48
470.134	143.31
470.343	146.02
470.552	94.87
470.762	93.71
470.971	80.34
471.18	114.63
471.39	96.42
471.599	49.92
471.808	143.89
472.018	76.66
472.227	109.79
472.436	130.13
472.645	87.51
472.855	103.2
473.064	130.13
473.273	96.62
473.482	117.54
473.691	153.96
473.901	126.06
474.11	102.23
474.319	169.85
474.528	132.85
474.737	153.96
474.946	115.8
475.155	104.75
475.364	130.13
475.573	110.95
475.783	97.2
475.992	121.22
476.201	157.45
476.41	80.34
476.619	78.21
476.828	115.22
477.037	102.04
477.245	121.61
477.454	133.62
477.663	135.17
477.872	86.93
478.081	166.17
478.29	60.97
478.499	180.51
478.708	124.13
478.917	167.33
479.125	127.61
479.334	146.99
479.543	115.6
479.752	138.08
479.961	115.6
480.169	143.89
480.378	117.93
480.587	213.44
480.796	154.93
481.004	133.43
481.213	133.62
481.422	134.4
481.63	128.58
481.839	133.23
482.048	187.29
482.256	115.6
482.465	142.34
482.674	158.81
482.882	175.66
483.091	195.04
483.299	155.13
483.508	153.96
483.716	135.75
483.925	137.5
484.134	115.22
484.342	131.3
484.551	171.6
484.759	139.82
484.967	173.53
485.176	180.7
485.384	159.39
485.593	206.47
485.801	137.88
486.01	154.55
486.218	171.79
486.426	131.3
486.635	165.98
486.843	151.25
487.051	151.25
487.26	113.28
487.468	161.13
487.676	187.1
487.885	113.28
488.093	168.5
488.301	188.26
488.509	145.05
488.717	176.63
488.926	168.69
489.134	139.43
489.342	160.16
489.55	147.96
489.758	160.16
489.967	115.22
490.175	230.88
490.383	138.46
490.591	208.21
490.799	97
491.007	166.95
491.215	174.11
491.423	150.67
491.631	165.98
491.839	155.32
492.047	207.05
492.255	128.78
492.463	127.42
492.671	161.13
492.879	187.1
493.087	151.83
493.295	166.95
493.503	148.93
493.711	176.83
493.919	237.66
494.127	204.34
494.334	200.85
494.542	157.65
494.75	160.36
494.958	148.35
495.166	232.82
495.374	192.71
495.581	190.78
495.789	171.6
495.997	221.78
496.205	177.99
496.412	186.13
496.62	161.33
496.828	184
497.035	177.02
497.243	207.05
497.451	164.04
497.658	194.85
497.866	167.33
498.074	249.29
498.281	175.28
498.489	212.86
498.696	209.96
498.904	193.68
499.112	202.79
499.319	227.2
499.527	184.96
499.734	225.46
499.942	171.01
500.149	165.98
500.357	183.61
500.564	140.6
500.771	230.88
500.979	172.56
501.186	194.07
501.394	200.85
501.601	207.44
501.808	220.42
502.016	205.5
502.223	188.65
502.43	242.7
502.638	194.46
502.845	179.54
503.052	257.04
503.26	172.56
503.467	259.75
503.674	203.37
503.881	227.59
504.089	290.36
504.296	269.44
504.503	154.93
504.71	227.01
504.917	157.26
505.125	234.95
505.332	181.86
505.539	218.68
505.746	257.62
505.953	247.74
506.16	254.52
506.367	262.27
506.574	244.44
506.781	280.29
506.988	177.6
507.195	220.61
507.402	188.45
507.609	251.03
507.816	207.05
508.023	204.14
508.23	190
508.437	198.33
508.644	244.44
508.851	261.69
509.058	237.28
509.265	212.48
509.472	227.59
509.679	302.37
509.885	241.93
510.092	234.56
510.299	233.01
510.506	251.03
510.713	236.11
510.92	230.88
511.126	241.15
511.333	264.01
511.54	284.16
511.746	292.3
511.953	287.84
512.16	267.5
512.367	221.97
512.573	221.78
512.78	248.9
512.987	234.95
513.193	266.92
513.4	197.17
513.606	253.55
513.813	260.91
514.02	247.16
514.226	323.11
514.433	280.09
514.639	256.07
514.846	261.11
515.052	237.28
515.259	252.58
515.465	270.21
515.672	271.76
515.878	372.71
516.085	212.86
516.291	285.52
516.497	250.84
516.704	272.34
516.91	207.83
517.117	229.53
517.323	209.96
517.529	278.35
517.736	283
517.942	254.33
518.148	255.29
518.354	295.79
518.561	265.37
518.767	284.16
518.973	319.42
519.179	278.54
519.386	266.14
519.592	239.99
519.798	248.32
520.004	301.6
520.21	246.38
520.417	307.99
520.623	330.08
520.829	317.1
521.035	280.29
521.241	306.25
521.447	307.41
521.653	395.57
521.859	299.08
522.065	295.98
522.271	379.29
522.477	331.05
522.683	344.61
522.889	349.84
523.095	361.27
523.301	337.64
523.507	296.76
523.713	337.83
523.919	319.42
524.125	400.6
524.331	299.86
524.537	391.89
524.742	339.19
524.948	364.18
525.154	366.31
525.36	435.67
525.566	381.42
525.772	420.95
525.977	325.04
526.183	397.7
526.389	381.81
526.595	349.26
526.8	357.21
527.006	325.62
527.212	317.87
527.417	344.03
527.623	322.72
527.829	390.53
528.034	387.43
528.24	362.05
528.446	335.51
528.651	411.84
528.857	397.5
529.062	433.93
529.268	386.07
529.473	376.19
529.679	368.44
529.884	436.25
530.09	403.12
530.295	454.85
530.501	446.91
530.706	411.07
530.912	370.77
531.117	403.12
531.323	413.2
531.528	431.22
531.733	432.77
531.939	381.62
532.144	454.27
532.35	420.17
532.555	474.23
532.76	458.92
532.966	456.79
533.171	433.54
533.376	404.29
533.581	425.02
533.787	434.9
533.992	467.25
534.197	464.93
534.402	441.87
534.607	428.7
534.813	515.3
535.018	397.31
535.223	436.45
535.428	455.63
535.633	469.97
535.838	459.31
536.043	439.74
536.249	511.23
536.454	427.92
536.659	456.21
536.864	437.22
537.069	447.49
537.274	464.93
537.479	481.4
537.684	497.09
537.889	423.08
538.094	520.73
538.299	487.6
538.504	495.35
538.708	477.33
538.913	478.88
539.118	456.21
539.323	463.77
539.528	447.1
539.733	468.03
539.938	461.44
540.142	511.23
540.347	461.83
540.552	454.85
540.757	450.4
540.962	465.7
541.166	405.84
541.371	425.02
541.576	465.51
541.781	384.14
541.985	440.9
542.19	483.53
542.395	512.2
542.599	526.73
542.804	518.6
543.008	524.8
543.213	454.85
543.418	476.75
543.622	499.42
543.827	465.7
544.031	509.49
544.236	494.57
544.44	524.99
544.645	560.06
544.849	501.74
545.054	500.58
545.258	568.78
545.463	541.27
545.667	486.43
545.872	501.55
546.076	500.77
546.281	498.64
546.485	469.97
546.689	524.8
546.894	543.4
547.098	492.63
547.302	438
547.507	488.37
547.711	483.33
547.915	592.03
548.119	493.8
548.324	526.93
548.528	568.2
548.732	507.36
548.936	540.1
549.141	532.93
549.345	497.67
549.549	514.92
549.753	505.03
549.957	574.98
550.161	551.15
550.366	515.88
550.57	482.17
550.774	529.45
550.978	543.4
551.182	527.32
551.386	500
551.59	524.41
551.794	515.69
551.998	543.59
552.202	533.13
552.406	465.9
552.61	496.7
552.814	515.11
553.018	553.86
553.222	522.28
553.426	512.2
553.63	599
553.833	520.73
554.037	466.09
554.241	531.97
554.445	535.26
554.649	508.91
554.853	497.09
555.056	527.9
555.26	551.34
555.464	517.63
555.668	543.4
555.871	538.55
556.075	547.47
556.279	483.14
556.483	480.23
556.686	506.2
556.89	525.96
557.094	518.79
557.297	486.82
557.501	583.11
557.704	462.99
557.908	567.81
558.112	477.13
558.315	571.1
558.519	522.67
558.722	517.24
558.926	472.1
559.129	458.92
559.333	457.57
559.536	481.98
559.74	478.3
559.943	452.53
560.147	449.04
560.35	488.57
560.553	460.28
560.757	423.27
560.96	543.01
561.164	439.94
561.367	571.68
561.57	460.86
561.774	488.18
561.977	487.21
562.18	475.39
562.384	545.53
562.587	476.75
562.79	455.63
562.993	465.9
563.197	534.87
563.4	522.08
563.603	520.53
563.806	551.34
564.009	462.02
564.212	480.43
564.416	435.09
564.619	503.68
564.822	427.92
565.025	507.94
565.228	459.7
565.431	507.36
565.634	374.45
565.837	440.52
566.04	403.7
566.243	465.51
566.446	397.5
566.649	469.77
566.852	410.68
567.055	443.23
567.258	485.85
567.461	498.83
567.664	510.27
567.867	396.54
568.07	484.69
568.273	455.82
568.475	504.07
568.678	449.62
568.881	443.62
569.084	446.91
569.287	372.12
569.489	388.2
569.692	457.76
569.895	449.04
570.098	407
570.3	424.82
570.503	352.36
570.706	387.04
570.909	399.05
571.111	389.56
571.314	378.32
571.516	394.02
571.719	419.79
571.922	388.01
572.124	390.14
572.327	388.79
572.529	340.74
572.732	350.04
572.935	403.51
573.137	420.95
573.34	346.16
573.542	398.47
573.745	393.24
573.947	392.47
574.15	396.34
574.352	338.41
574.554	427.92
574.757	337.83
574.959	371.35
575.162	342.29
575.364	377.16
575.566	466.09
575.769	326.4
575.971	375.81
576.173	295.21
576.376	368.44
576.578	397.5
576.78	418.82
576.982	302.57
577.185	334.54
577.387	310.32
577.589	307.22
577.791	382.78
577.993	372.71
578.196	345
578.398	359.34
578.6	414.36
578.802	330.27
579.004	345.39
579.206	333.57
579.408	370.77
579.61	306.06
579.812	391.11
580.014	321.36
580.216	318.84
580.418	342.29
580.62	330.86
580.822	269.44
581.024	344.42
581.226	360.69
581.428	325.04
581.63	406.61
581.832	308.38
582.034	344.03
582.236	345
582.438	357.21
582.64	372.12
582.841	378.32
583.043	402.35
583.245	345.58
583.447	349.46
583.649	331.44
583.85	376
584.052	366.31
584.254	308.19
584.456	395.76
584.657	274.28
584.859	339.77
585.061	321.75
585.262	318.26
585.464	301.99
585.666	358.37
585.867	312.45
586.069	391.11
586.27	353.72
586.472	305.28
586.674	331.24
586.875	326.59
587.077	318.65
587.278	328.53
587.48	329.11
587.681	429.86
587.883	353.91
588.084	292.49
588.285	299.27
588.487	336.09
588.688	344.42
588.89	296.76
589.091	278.74
589.292	295.79
589.494	305.67
589.695	302.37
589.896	260.14
590.098	256.65
590.299	299.86
590.5	283.58
590.702	281.64
590.903	298.89
591.104	338.8
591.305	291.72
591.507	344.61
591.708	338.99
591.909	293.46
592.11	358.37
592.311	341.51
592.512	307.02
592.714	269.63
592.915	261.88
593.116	303.34
593.317	279.9
593.518	264.59
593.719	270.99
593.92	316.13
594.121	335.12
594.322	306.83
594.523	300.44
594.724	234.18
594.925	308.57
595.126	312.45
595.327	334.92
595.528	314
595.729	295.98
595.929	293.66
596.13	298.11
596.331	300.44
596.532	300.05
596.733	359.34
596.934	342.48
597.135	297.14
597.335	319.42
597.536	259.36
597.737	307.8
597.938	278.93
598.138	314.39
598.339	263.63
598.54	302.57
598.74	260.91
598.941	298.11
599.142	332.99
599.342	319.04
599.543	257.23
599.744	256.07
599.944	273.51
600.145	294.24
600.345	275.64
600.546	378.9
600.746	324.46
600.947	377.16
601.147	312.26
601.348	318.65
601.548	292.3
601.749	295.21
601.949	277.19
602.15	268.28
602.35	271.38
602.551	330.08
602.751	290.17
602.951	260.33
603.152	237.47
603.352	349.84
603.552	293.07
603.753	301.02
603.953	302.76
604.153	317.87
604.354	289.59
604.554	285.71
604.754	280.68
604.954	252.19
605.155	299.86
605.355	308.38
605.555	318.84
605.755	325.43
605.955	297.53
606.155	332.02
606.356	306.44
606.556	337.83
606.756	314
606.956	245.8
607.156	349.26
607.356	254.71
607.556	291.72
607.756	292.49
607.956	357.4
608.156	320.01
608.356	292.3
608.556	310.32
608.756	311.29
608.956	270.02
609.156	291.72
609.356	258.98
609.556	262.85
609.755	314.77
609.955	274.67
610.155	293.27
610.355	312.26
610.555	237.86
610.755	307.61
610.954	233.21
611.154	296.95
611.354	298.11
611.554	261.3
611.753	236.31
611.953	250.06
612.153	278.74
612.352	280.48
612.552	250.26
612.752	205.5
612.951	250.06
613.151	298.11
613.351	225.65
613.55	261.88
613.75	283.58
613.949	277.96
614.149	287.65
614.348	262.85
614.548	275.25
614.747	227.59
614.947	238.63
615.146	221.58
615.346	270.02
615.545	258.98
615.745	279.13
615.944	268.66
616.144	243.48
616.343	275.44
616.542	245.99
616.742	269.24
616.941	271.76
617.14	206.47
617.34	252.39
617.539	276.41
617.738	239.79
617.938	320.59
618.137	265.95
618.336	212.28
618.535	288.04
618.734	256.65
618.934	267.31
619.133	244.06
619.332	272.54
619.531	243.09
619.73	245.41
619.929	289.59
620.128	266.34
620.328	297.72
620.527	234.76
620.726	216.74
620.925	249.29
621.124	223.33
621.323	274.48
621.522	207.63
621.721	202.79
621.92	230.88
622.119	276.22
622.318	205.31
622.517	253.36
622.715	251.81
622.914	170.43
623.113	242.51
623.312	216.93
623.511	248.51
623.71	209.96
623.909	214.41
624.107	295.79
624.306	191.75
624.505	206.47
624.704	234.37
624.902	239.21
625.101	291.33
625.3	227.39
625.499	223.71
625.697	205.69
625.896	180.31
626.095	233.59
626.293	172.95
626.492	209.18
626.69	234.95
626.889	189.03
627.088	250.64
627.286	193.3
627.485	219.64
627.683	216.54
627.882	210.93
628.08	168.5
628.279	204.34
628.477	267.69
628.676	188.65
628.874	231.46
629.073	218.29
629.271	181.48
629.469	245.22
629.668	186.71
629.866	211.89
630.065	209.18
630.263	227.2
630.461	203.18
630.66	246.58
630.858	243.09
631.056	265.56
631.254	237.66
631.453	185.55
631.651	232.63
631.849	228.56
632.047	226.23
632.245	215.19
632.444	231.27
632.642	255.49
632.84	245.8
633.038	203.76
633.236	205.69
633.434	206.28
633.632	176.44
633.83	183.41
634.028	238.44
634.227	198.53
634.425	269.63
634.623	207.44
634.821	216.35
635.019	205.11
635.216	190.2
635.414	220.03
635.612	199.11
635.81	200.46
636.008	246.77
636.206	177.99
636.404	244.06
636.602	196.78
636.8	215.38
636.997	205.11
637.195	240.96
637.393	206.86
637.591	252.39
637.789	215.77
637.986	206.28
638.184	205.5
638.382	271.18
638.58	254.91
638.777	255.1
638.975	211.89
639.173	212.67
639.37	205.5
639.568	229.14
639.765	227.59
639.963	217.51
640.161	244.64
640.358	235.53
640.556	186.51
640.753	157.45
640.951	188.65
641.148	234.18
641.346	196.98
641.543	223.91
641.741	236.69
641.938	210.34
642.136	220.81
642.333	171.01
642.531	242.89
642.728	260.33
642.925	202.4
643.123	207.63
643.32	201.43
643.517	197.95
643.715	221.58
643.912	167.53
644.109	243.86
644.306	192.52
644.504	178.18
644.701	209.76
644.898	219.26
645.095	200.66
645.293	208.41
645.49	237.86
645.687	206.47
645.884	227.01
646.081	159
646.278	169.85
646.475	219.64
646.672	198.14
646.87	228.94
647.067	229.33
647.264	211.89
647.461	192.91
647.658	138.27
647.855	215.19
648.052	192.91
648.249	110.57
648.446	198.53
648.642	173.15
648.839	169.85
649.036	171.21
649.233	158.03
649.43	145.63
649.627	137.69
649.824	200.66
650.021	169.27
650.217	153.77
650.414	159.39
650.611	170.63
650.808	197.17
651.004	180.12
651.201	223.33
651.398	220.81
651.595	180.31
651.791	188.65
651.988	207.63
652.185	164.81
652.381	187.87
652.578	148.54
652.775	146.8
652.971	176.63
653.168	170.43
653.364	194.65
653.561	114.63
653.757	171.4
653.954	179.15
654.15	117.73
654.347	223.91
654.543	185.35
654.74	129.55
654.936	114.83
655.133	174.31
655.329	170.63
655.525	173.53
655.722	186.71
655.918	139.24
656.115	198.91
656.311	139.05
656.507	148.73
656.704	103.4
656.9	134.2
657.096	137.3
657.292	128.2
657.489	190
657.685	164.04
657.881	158.03
658.077	162.49
658.273	175.86
658.47	247.16
658.666	147.38
658.862	177.41
659.058	143.5
659.254	182.25
659.45	137.3
659.646	173.15
659.842	148.93
660.038	204.92
660.234	147.18
660.43	160.94
660.626	215.77
660.822	182.25
661.018	201.24
661.214	150.09
661.41	124.9
661.606	178.96
661.802	177.02
661.998	130.52
662.194	127.81
662.39	165.4
662.586	190.39
662.781	168.11
662.977	182.45
663.173	177.41
663.369	163.26
663.564	154.16
663.76	190.39
663.956	153.58
664.152	202.98
664.347	112.12
664.543	153.38
664.739	154.16
664.934	112.31
665.13	107.85
665.326	180.12
665.521	179.54
665.717	114.25
665.912	135.75
666.108	114.05
666.304	129.55
666.499	136.33
666.695	87.9
666.89	131.1
667.086	200.27
667.281	144.47
667.477	202.01
667.672	141.95
667.867	140.21
668.063	173.34
668.258	108.05
668.454	143.7
668.649	220.03
668.844	150.09
669.04	170.43
669.235	157.45
669.43	127.23
669.626	149.12
669.821	138.85
670.016	88.09
670.211	152.41
670.407	116.18
670.602	122.58
670.797	150.86
670.992	172.18
671.187	141.76
671.382	188.65
671.578	115.02
671.773	163.85
671.968	105.92
672.163	155.71
672.358	177.8
672.553	80.73
672.748	104.17
672.943	198.14
673.138	123.35
673.333	171.6
673.528	107.85
673.723	142.15
673.918	138.66
674.113	127.42
674.308	233.59
674.503	167.91
674.698	169.46
674.892	175.86
675.087	173.92
675.282	166.75
675.477	138.08
675.672	166.36
675.867	138.85
676.061	115.41
676.256	101.65
676.451	109.98
676.646	136.33
676.84	121.61
677.035	108.82
677.23	116.76
677.424	157.65
677.619	173.92
677.814	168.11
678.008	164.81
678.203	82.08
678.397	112.12
678.592	169.66
678.787	198.91
678.981	157.06
679.176	159.97
679.37	162.88
679.565	123.55
679.759	107.08
679.954	148.15
680.148	168.11
680.342	178.38
680.537	166.17
680.731	121.41
680.926	158.42
681.12	191.16
681.314	131.68
681.509	140.4
681.703	142.15
681.897	195.62
682.092	136.53
682.286	115.6
682.48	210.73
682.674	164.81
682.869	136.91
683.063	135.75
683.257	216.93
683.451	123.16
683.645	164.62
683.839	150.86
684.034	135.36
684.228	142.92
684.422	101.85
684.616	118.9
684.81	173.34
685.004	133.81
685.198	142.34
685.392	179.54
685.586	131.49
685.78	162.88
685.974	163.65
686.168	188.26
686.362	202.6
686.556	142.73
686.75	89.45
686.944	131.3
687.138	172.76
687.331	99.33
687.525	148.54
687.719	92.74
687.913	141.18
688.107	139.63
688.301	131.88
688.494	156.48
688.688	104.37
688.882	107.08
689.076	82.28
689.269	142.34
689.463	190
689.657	99.52
689.85	131.3
690.044	136.33
690.238	106.11
690.431	106.69
690.625	118.7
690.818	149.51
691.012	144.08
691.205	136.72
691.399	89.64
691.593	131.49
691.786	183.8
691.98	158.61
692.173	194.07
692.366	145.63
692.56	169.66
692.753	193.49
692.947	107.27
693.14	180.9
693.333	157.45
693.527	121.22
693.72	165.78
693.914	143.5
694.107	157.06
694.3	176.05
694.493	146.8
694.687	176.44
694.88	156.29
695.073	215.77
695.266	209.38
695.46	167.53
695.653	207.44
695.846	214.8
696.039	146.6
696.232	180.51
696.425	203.18
696.618	170.63
696.812	162.88
697.005	221.78
697.198	288.62
697.391	202.98
697.584	232.04
697.777	259.94
697.97	264.98
698.163	247.93
698.356	224.1
698.549	315.94
698.742	277.96
698.935	200.66
699.127	283.19
699.32	211.51
699.513	223.91
699.706	276.99
699.899	292.3
700.092	226.62
700.285	283.19
700.477	234.95
700.67	294.82
700.863	296.37
701.056	358.56
701.248	332.79
701.441	334.15
701.634	283.39
701.826	391.5
702.019	296.37
702.212	343.26
702.404	306.06
702.597	298.5
702.79	301.99
702.982	305.47
703.175	347.71
703.367	344.61
703.56	358.56
703.752	422.3
703.945	388.59
704.137	404.29
704.33	378.13
704.522	431.22
704.715	422.69
704.907	419.2
705.1	430.05
705.292	448.65
705.484	411.84
705.677	456.99
705.869	435.48
706.061	450.79
706.254	491.08
706.446	452.34
706.638	436.06
706.831	512.01
707.023	444.97
707.215	565.87
707.407	526.93
707.599	517.24
707.792	567.61
707.984	515.88
708.176	547.66
708.368	519.18
708.56	552.89
708.752	515.69
708.944	523.25
709.136	569.16
709.329	547.85
709.521	648.21
709.713	621.48
709.905	626.32
710.097	650.93
710.289	580.6
710.481	611.4
710.672	648.41
710.864	607.14
711.056	692
711.248	679.6
711.44	676.89
711.632	661.19
711.824	694.91
712.016	718.16
712.207	729.01
712.399	694.13
712.591	753.61
712.783	739.47
712.975	758.84
713.166	731.72
713.358	734.24
713.55	787.32
713.741	803.41
713.933	765.62
714.125	792.56
714.316	781.12
714.508	837.5
714.7	855.33
714.891	826.27
715.083	900.28
715.274	824.14
715.466	820.84
715.657	866.37
715.849	778.61
716.04	831.69
716.232	799.53
716.423	865.99
716.615	828.01
716.806	805.73
716.998	810.19
717.189	776.47
717.381	729.78
717.572	720.09
717.763	793.72
717.955	757.49
718.146	746.64
718.337	717.77
718.528	703.43
718.72	687.16
718.911	742.37
719.102	704.98
719.293	767.56
719.485	734.43
719.676	749.74
719.867	684.83
720.058	685.22
720.249	728.42
720.44	754.97
720.632	749.93
720.823	760.01
721.014	871.02
721.205	850.1
721.396	889.24
721.587	967.9
721.778	959.57
721.969	989.02
722.16	1001.41
722.351	987.47
722.542	1092.67
722.733	1107.59
722.924	1011.1
723.115	1067.68
723.305	1087.24
723.496	1086.28
723.687	1021.56
723.878	1043.65
724.069	1013.43
724.26	1039.58
724.45	1014.01
724.641	1030.28
724.832	1056.63
725.023	1032.41
725.213	1013.04
725.404	1035.9
725.595	1026.21
725.785	1039.58
725.976	1084.73
726.167	1047.14
726.357	1072.33
726.548	1162.03
726.739	1093.25
726.929	1139.17
727.12	1179.86
727.31	1160.68
727.501	1166.87
727.691	1171.72
727.882	1166.68
728.072	1197.49
728.263	1200.01
728.453	1211.82
728.644	1247.09
728.834	1214.54
729.024	1187.22
729.215	1193.61
729.405	1236.24
729.596	1305.6
729.786	1272.85
729.976	1310.64
730.167	1341.44
730.357	1292.23
730.547	1312.19
730.737	1343.96
730.928	1396.85
731.118	1396.27
731.308	1369.73
731.498	1337.95
731.688	1427.27
731.879	1399.18
732.069	1479.2
732.259	1496.05
732.449	1494.5
732.639	1553.59
732.829	1598.74
733.019	1597.38
733.209	1637.68
733.399	1666.16
733.589	1696.39
733.779	1697.35
733.969	1699.29
734.159	1777.76
734.349	1779.12
734.539	1797.91
734.729	1842.47
734.919	1832.59
735.109	1882.77
735.299	1829.68
735.488	1834.53
735.678	1857.97
735.868	1860.3
736.058	1869.98
736.248	1839.57
736.437	1807.4
736.627	1825.03
736.817	1911.83
737.007	1872.31
737.196	1921.71
737.386	1913.38
737.576	1907.18
737.765	1983.71
737.955	1962.59
738.144	2050.36
738.334	2007.93
738.524	1983.91
738.713	1978.68
738.903	1988.94
739.092	2029.63
739.282	2051.33
739.471	2037.38
739.661	2020.33
739.85	2103.26
740.04	2097.83
740.229	2114.3
740.419	2130.96
740.608	2148.79
740.797	2147.43
740.987	2194.51
741.176	2189.09
741.365	2149.95
741.555	2134.64
741.744	2196.25
741.933	2167.97
742.123	2238.49
742.312	2209.24
742.501	2238.68
742.69	2231.13
742.88	2167.97
743.069	2301.26
743.258	2232.29
743.447	2292.93
743.636	2287.7
743.825	2236.17
744.014	2313.66
744.204	2262.9
744.393	2259.22
744.582	2339.82
744.771	2330.52
744.96	2351.83
745.149	2361.33
745.338	2268.33
745.527	2343.31
745.716	2319.67
745.905	2309.6
746.094	2315.02
746.283	2359.39
746.471	2347.18
746.66	2454.91
746.849	2344.28
747.038	2438.24
747.227	2397.56
747.416	2408.21
747.604	2415.77
747.793	2395.81
747.982	2351.64
748.171	2417.71
748.359	2445.03
748.548	2420.03
748.737	2394.84
748.926	2389.03
749.114	2340.01
749.303	2396.78
749.491	2376.25
749.68	2318.7
749.869	2408.41
750.057	2387.87
750.246	2384.19
750.434	2381.28
750.623	2404.34
750.811	2355.9
751	2418.68
751.188	2372.18
751.377	2424.1
751.565	2427.98
751.754	2350.09
751.942	2368.11
752.131	2428.75
752.319	2358.23
752.507	2371.4
752.696	2385.93
752.884	2433.01
753.072	2409.18
753.261	2398.33
753.449	2391.94
753.637	2381.48
753.825	2471.38
754.014	2415.96
754.202	2418.68
754.39	2476.8
754.578	2441.15
754.766	2397.56
754.955	2375.66
755.143	2405.69
755.331	2379.54
755.519	2359.78
755.707	2391.94
755.895	2389.23
756.083	2418.09
756.271	2338.08
756.459	2373.73
756.647	2419.64
756.835	2363.07
757.023	2348.93
757.211	2374.31
757.399	2338.46
757.587	2356.29
757.775	2306.11
757.963	2331.68
758.151	2315.6
758.339	2322.96
758.526	2321.8
758.714	2311.73
758.902	2239.46
759.09	2177.65
759.278	2055.4
759.465	1914.35
759.653	1585.56
759.841	1457.11
760.028	1286.03
760.216	1092.48
760.404	1069.03
760.591	835.37
760.779	702.08
760.967	606.56
761.154	498.25
761.342	543.98
761.529	550.37
761.717	616.44
761.905	557.93
762.092	623.22
762.28	569.16
762.467	570.52
762.655	497.67
762.842	561.8
763.029	549.98
763.217	569.94
763.404	576.33
763.592	564.13
763.779	524.6
763.966	598.23
764.154	625.16
764.341	673.59
764.528	651.89
764.716	704.79
764.903	735.21
765.09	750.71
765.277	819.49
765.465	943.1
765.652	979.91
765.839	1038.42
766.026	1118.63
766.213	1151.18
766.4	1243.41
766.588	1386.97
766.775	1353.84
766.962	1455.75
767.149	1499.15
767.336	1636.91
767.523	1558.63
767.71	1688.44
767.897	1784.73
768.084	1807.4
768.271	1819.42
768.458	1889.94
768.645	1935.28
768.832	1896.53
769.019	1942.45
769.206	1979.64
769.392	1991.66
769.579	2137.94
769.766	2042.61
769.953	2025.37
770.14	2081.94
770.327	2054.43
770.513	2104.81
770.7	2221.63
770.887	2089.31
771.073	2146.27
771.26	2121.66
771.447	2099.19
771.634	2105
771.82	2172.42
772.007	2090.27
772.193	2131.93
772.38	2172.62
772.567	2099.19
772.753	2137.74
772.94	2160.22
773.126	2181.34
773.313	2158.86
773.499	2172.81
773.686	2167.77
773.872	2128.64
774.059	2209.04
774.245	2082.91
774.432	2122.44
774.618	2104.03
774.804	2150.72
774.991	2069.93
775.177	2167.58
775.363	2094.73
775.55	2198
775.736	2087.17
775.922	2115.66
776.109	2112.17
776.295	2127.86
776.481	2123.99
776.667	2188.89
776.853	2082.72
777.04	2068.77
777.226	2092.02
777.412	2150.72
777.598	2050.75
777.784	2094.73
777.97	2037.77
778.156	2105
778.342	2086.98
778.528	2068.38
778.715	2013.36
778.901	2034.28
779.087	2077.87
779.272	2049.01
779.458	2003.86
779.644	2053.85
779.83	2023.63
780.016	2114.11
780.202	2010.45
780.388	2002.89
780.574	1955.81
780.76	1998.24
780.946	2026.73
781.131	2028.66
781.317	2046.29
781.503	1994.95
781.689	1978.68
781.874	2067.61
782.06	1975.96
782.246	1996.69
782.432	1976.54
782.617	1984.68
782.803	2048.81
782.989	1948.26
783.174	1938.76
783.36	1928.88
783.545	1948.45
783.731	1968.02
783.916	1934.5
784.102	1983.71
784.288	1905.63
784.473	1923.65
784.659	1912.8
784.844	1953.49
785.029	1901.56
785.215	1885.1
785.4	1865.33
785.586	1956.78
785.771	1877.35
785.956	1916.87
786.142	1906.02
786.327	1866.69
786.512	1883.16
786.698	1880.25
786.883	1826.78
787.068	1823.48
787.254	1867.46
787.439	1848.48
787.624	1835.69
787.809	1826.78
787.994	1815.93
788.18	1885.1
788.365	1797.13
788.55	1811.08
788.735	1818.83
788.92	1813.99
789.105	1772.72
789.29	1826
789.475	1759.35
789.66	1770.2
789.845	1764.2
790.03	1720.41
790.215	1813.02
790.4	1821.35
790.585	1825.42
790.77	1756.25
790.955	1697.55
791.14	1745.21
791.325	1831.23
791.51	1661.51
791.695	1712.08
791.879	1733.59
792.064	1697.94
792.249	1754.7
792.434	1748.89
792.618	1723.7
792.803	1732.81
792.988	1727.97
793.173	1739.01
793.357	1795.39
793.542	1702.2
793.727	1752.77
793.911	1759.74
794.096	1750.44
794.281	1773.3
794.465	1800.04
794.65	1748.31
794.834	1770.2
795.019	1819.8
795.203	1770.4
795.388	1788.8
795.572	1809.15
795.757	1798.49
795.941	1771.17
796.126	1759.55
796.31	1718.86
796.494	1743.47
796.679	1718.28
796.863	1705.1
797.048	1783.96
797.232	1760.52
797.416	1747.34
797.601	1738.82
797.785	1852.74
797.969	1778.15
798.153	1773.69
798.338	1806.82
798.522	1809.53
798.706	1816.32
798.89	1771.56
799.074	1826.97
799.258	1813.02
799.443	1785.12
799.627	1796.94
799.811	1829.1
799.995	1764
800.179	1757.61
800.363	1754.7
800.547	1808.57
800.731	1802.75
800.915	1714.79
801.099	1777.18
801.283	1760.32
801.467	1795.58
801.651	1729.52
801.835	1837.43
802.019	1779.89
802.202	1785.51
802.386	1728.74
802.57	1727
802.754	1742.5
802.938	1747.92
803.121	1713.05
803.305	1802.75
803.489	1789.38
803.673	1800.43
803.856	1786.87
804.04	1761.68
804.224	1782.22
804.407	1736.3
804.591	1725.45
804.775	1750.83
804.958	1753.74
805.142	1852.55
805.326	1761.29
805.509	1792.68
805.693	1811.08
805.876	1816.12
806.06	1831.04
806.243	1796.17
806.427	1828.72
806.61	1849.25
806.794	1764.59
806.977	1819.42
807.16	1787.45
807.344	1777.95
807.527	1811.86
807.71	1798.49
807.894	1779.7
808.077	1817.09
808.26	1758.39
808.444	1777.18
808.627	1808.95
808.81	1754.51
808.993	1688.25
809.177	1721.19
809.36	1726.22
809.543	1762.07
809.726	1654.54
809.909	1684.96
810.092	1659.57
810.276	1657.44
810.459	1699.68
810.642	1642.14
810.825	1650.86
811.008	1618.11
811.191	1567.54
811.374	1563.28
811.557	1588.86
811.74	1660.93
811.923	1533.83
812.106	1554.76
812.289	1517.94
812.472	1560.96
812.654	1559.21
812.837	1507.29
813.02	1455.56
813.203	1456.33
813.386	1381.35
813.569	1342.41
813.751	1335.24
813.934	1410.22
814.117	1345.12
814.3	1322.65
814.482	1267.43
814.665	1265.1
814.848	1245.34
815.03	1194.39
815.213	1201.36
815.396	1208.14
815.578	1218.02
815.761	1138.39
815.943	1222.09
816.126	1138.01
816.309	1119.79
816.491	1102.74
816.674	1044.81
816.856	1069.61
817.039	1083.76
817.221	1138.2
817.403	1106.23
817.586	1124.83
817.768	1090.15
817.951	1050.24
818.133	1035.71
818.315	1055.66
818.498	1118.83
818.68	1128.9
818.862	1132
819.045	1144.01
819.227	1112.24
819.409	1111.66
819.591	1148.86
819.774	1076.2
819.956	1088.79
820.138	1131.61
820.32	1100.03
820.502	1183.34
820.684	1253.29
820.866	1209.11
821.048	1247.67
821.231	1271.3
821.413	1225.39
821.595	1227.91
821.777	1262
821.959	1229.26
822.141	1298.04
822.323	1216.67
822.505	1126.38
822.686	1128.51
822.868	1071.36
823.05	993.86
823.232	971
823.414	945.23
823.596	1023.11
823.778	986.11
823.96	1003.16
824.141	1012.26
824.323	1038.61
824.505	1056.63
824.687	1146.14
824.868	1132.78
825.05	1213.96
825.232	1223.06
825.413	1290.29
825.595	1256.58
825.777	1162.03
825.958	1235.27
826.14	1225.58
826.321	1242.24
826.503	1208.72
826.685	1235.85
826.866	1248.06
827.048	1249.22
827.229	1198.26
827.411	1199.04
827.592	1123.09
827.773	1117.86
827.955	1107.2
828.136	1098.09
828.318	1055.66
828.499	1110.49
828.68	1092.48
828.862	1102.36
829.043	1096.93
829.224	1105.26
829.406	1075.81
829.587	1083.37
829.768	1052.95
829.949	1083.37
830.131	1086.47
830.312	1117.47
830.493	1134.33
830.674	1108.36
830.855	1074.85
831.036	1090.15
831.218	1151.57
831.399	1161.06
831.58	1142.85
831.761	1127.74
831.942	1135.29
832.123	1114.18
832.304	1073.49
832.485	1121.54
832.666	1093.25
832.847	1132.78
833.028	1103.91
833.209	1103.13
833.389	1069.23
833.57	1060.9
833.751	1064.77
833.932	1111.46
834.113	1122.12
834.294	1051.4
834.475	1128.13
834.655	1166.1
834.836	1157.77
835.017	1134.91
835.198	1066.13
835.378	1120.38
835.559	1187.61
835.74	1137.04
835.92	1129.29
836.101	1102.74
836.281	1139.94
836.462	1148.66
836.643	1194.19
836.823	1175.59
837.004	1167.26
837.184	1234.69
837.365	1177.92
837.545	1215.89
837.726	1146.92
837.906	1209.69
838.087	1169.78
838.267	1172.3
838.448	1121.73
838.628	1154.86
838.808	1154.09
838.989	1223.84
839.169	1111.27
839.349	1185.09
839.53	1182.57
839.71	1196.91
839.89	1115.14
840.07	1180.24
840.251	1157.58
840.431	1194.58
840.611	1172.49
840.791	1098.48
840.971	1162.42
841.151	1143.63
841.332	1116.31
841.512	1179.66
841.692	1100.61
841.872	1167.07
842.052	1179.86
842.232	1153.31
842.412	1101.97
842.592	1121.93
842.772	1162.03
842.952	1153.31
843.132	1112.24
843.312	1130.26
843.492	1128.51
843.672	1156.22
843.851	1093.64
844.031	1126.77
844.211	1145.56
844.391	1092.67
844.571	1143.82
844.751	1160.29
844.93	1139.17
845.11	1102.94
845.29	1158.16
845.47	1153.31
845.649	1120.18
845.829	1133.36
846.009	1117.66
846.188	1150.79
846.368	1120.57
846.547	1128.9
846.727	1176.17
846.907	1073.1
847.086	1121.73
847.266	1153.51
847.445	1149.24
847.625	1094.41
847.804	1071.55
847.984	1088.21
848.163	1092.48
848.343	1066.51
848.522	1096.16
848.701	1100.03
848.881	1047.33
849.06	1106.81
849.239	1121.54
849.419	1092.48
849.598	1043.65
849.777	1027.96
849.957	1062.06
850.136	1004.32
850.315	981.85
850.494	1016.33
850.674	978.17
850.853	1044.04
851.032	1011.1
851.211	1078.53
851.39	1019.24
851.569	961.12
851.748	999.86
851.927	1035.13
852.107	997.73
852.286	994.63
852.465	997.15
852.644	1043.26
852.823	1025.83
853.002	992.89
853.181	1010.33
853.359	1047.91
853.538	940.77
853.717	1037.84
853.896	951.43
854.075	930.12
854.254	909.77
854.433	847.77
854.611	886.33
854.79	844.87
854.969	901.05
855.148	944.26
855.327	871.8
855.505	921.4
855.684	913.65
855.863	926.05
856.041	885.94
856.22	978.55
856.399	897.76
856.577	972.35
856.756	961.12
856.934	1064
857.113	1055.86
857.291	971
857.47	921.98
857.648	986.11
857.827	979.91
858.005	987.08
858.184	936.32
858.362	1039.78
858.541	972.93
858.719	976.23
858.898	953.37
859.076	964.99
859.254	1032.8
859.433	959.57
859.611	955.11
859.789	926.82
859.967	1017.69
860.146	1014.98
860.324	949.68
860.502	944.65
860.68	898.92
860.859	930.31
861.037	956.47
861.215	978.55
861.393	947.55
861.571	921.78
861.749	921.01
861.927	946.2
862.105	967.32
862.283	913.07
862.461	901.44
862.639	877.61
862.817	927.98
862.995	925.08
863.173	905.51
863.351	935.73
863.529	925.47
863.707	939.42
863.885	948.91
864.063	884
864.241	870.64
864.418	955.69
864.596	884
864.774	853.2
864.952	884.39
865.129	908.42
865.307	857.65
865.485	855.72
865.663	881.68
865.84	839.83
866.018	872.38
866.196	743.73
866.373	808.06
866.551	758.84
866.728	724.36
866.906	790.42
867.084	785
867.261	829.95
867.439	848.94
867.616	854.55
867.794	829.17
867.971	841.57
868.149	848.35
868.326	866.18
868.503	874.51
868.681	863.66
868.858	826.07
869.035	795.85
869.213	861.92
869.39	819.87
869.567	894.27
869.745	791.2
869.922	804.76
870.099	869.86
870.276	868.7
870.454	856.69
870.631	850.49
870.808	835.95
870.985	858.43
871.162	914.23
871.339	841.57
871.517	782.87
871.694	791.97
871.871	809.02
872.048	827.62
872.225	832.08
872.402	839.25
872.579	768.92
872.756	818.52
872.933	767.17
873.11	802.24
873.287	788.87
873.463	797.4
873.64	772.02
873.817	816.39
873.994	785.39
874.171	803.21
874.348	791.2
874.524	723
874.701	766.98
874.878	720.09
875.055	809.99
875.231	783.26
875.408	805.15
875.585	719.71
875.762	784.61
875.938	797.59
876.115	756.52
876.291	747.8
876.468	741.41
876.645	738.11
876.821	730.36
876.998	747.41
877.174	764.66
877.351	757.1
877.527	729.97
877.704	764.07
877.88	759.42
878.057	735.59
878.233	758.26
878.409	728.42
878.586	761.94
878.762	726.68
878.938	722.81
879.115	695.1
879.291	751.09
879.467	682.7
879.644	708.86
879.82	755.36
879.996	719.13
880.172	653.25
880.349	712.93
880.525	730.17
880.701	685.41
880.877	679.02
881.053	696.07
881.229	691.23
881.405	755.55
881.581	692.19
881.757	673.4
881.933	713.12
882.109	735.4
882.285	734.62
882.461	681.93
882.637	673.59
882.813	670.49
882.989	690.64
883.165	750.12
883.341	668.56
883.517	730.56
883.693	697.04
883.869	729.97
884.044	680.57
884.22	730.56
884.396	732.88
884.572	725.71
884.747	737.14
884.923	737.34
885.099	735.4
885.275	763.88
885.45	719.13
885.626	692.39
885.801	677.47
885.977	692.19
886.153	652.09
886.328	718.54
886.504	662.74
886.679	686.77
886.855	675.14
887.03	712.34
887.206	721.84
887.381	710.6
887.557	712.54
887.732	731.72
887.908	731.14
888.083	747.61
888.258	729.01
888.434	679.79
888.609	664.49
888.784	747.99
888.96	680.76
889.135	679.6
889.31	677.28
889.485	692
889.661	662.94
889.836	723.19
890.011	723.78
890.186	707.11
890.361	679.6
890.537	710.41
890.712	711.38
890.887	706.73
891.062	704.98
891.237	744.12
891.412	679.41
891.587	723.58
891.762	724.16
891.937	742.18
892.112	657.9
892.287	687.54
892.462	638.33
892.637	622.25
892.812	632.91
892.987	618.76
893.161	639.5
893.336	652.48
893.511	630.39
893.686	637.95
893.861	634.26
894.035	639.3
894.21	616.63
894.385	545.33
894.56	615.28
894.734	549.02
894.909	566.06
895.084	563.16
895.258	568.97
895.433	599.39
895.608	562.38
895.782	521.12
895.957	549.6
896.131	551.53
896.306	478.88
896.48	520.73
896.655	504.07
896.829	462.8
897.004	418.24
897.178	475.58
897.353	443.23
897.527	506
897.701	460.67
897.876	416.88
898.05	502.52
898.224	492.25
898.399	532.35
898.573	457.37
898.747	376.39
898.921	448.46
899.096	351.97
899.27	408.35
899.444	354.11
899.618	416.3
899.792	417.46
899.967	409.13
900.141	413.39
900.315	390.72
900.489	411.65
900.663	401.96
900.837	389.95
901.011	364.76
901.185	476.75
901.359	386.07
901.533	403.51
901.707	434.32
901.881	407.58
902.055	388.79
902.229	393.24
902.403	459.7
902.576	389.75
902.75	394.6
902.924	499.42
903.098	403.9
903.272	475.97
903.446	481.98
903.619	500.77
903.793	497.09
903.967	457.76
904.14	567.61
904.314	519.37
904.488	526.73
904.661	547.47
904.835	509.88
905.009	556.38
905.182	555.99
905.356	540.88
905.529	519.76
905.703	493.02
905.876	498.64
906.05	454.08
906.223	465.12
906.397	419.4
906.57	387.62
906.744	377.94
906.917	408.55
907.09	423.08
907.264	387.04
907.437	366.51
907.61	339.57
907.784	360.89
907.957	400.02
908.13	358.17
908.304	395.18
908.477	351.01
908.65	379.49
908.823	331.82
908.996	417.27
909.17	362.24
909.343	336.09
909.516	358.17
909.689	364.57
909.862	319.81
910.035	364.96
910.208	326.4
910.381	331.44
910.554	421.92
910.727	340.16
910.9	357.4
911.073	334.92
911.246	406.22
911.419	389.95
911.592	393.05
911.765	346.16
911.938	363.79
912.11	362.05
912.283	374.45
912.456	405.64
912.629	351.97
912.802	332.02
912.974	295.01
913.147	291.72
913.32	237.66
913.493	267.69
913.665	311.48
913.838	298.89
914.01	306.64
914.183	304.51
914.356	285.13
914.528	337.25
914.701	373.48
914.873	347.71
915.046	284.55
915.218	263.82
915.391	240.18
915.563	258.01
915.736	308.96
915.908	319.23
916.081	293.27
916.253	295.59
916.425	301.41
916.598	305.47
916.77	303.54
916.942	284.55
917.115	224.49
917.287	302.37
917.459	284.36
917.632	218.09
917.804	221.78
917.976	283.58
918.148	305.47
918.32	287.07
918.493	326.21
918.665	339.57
918.837	302.18
919.009	351.01
919.181	347.71
919.353	307.41
919.525	315.16
919.697	336.67
919.869	300.63
920.041	347.71
920.213	420.75
920.385	347.71
920.557	340.74
920.729	360.89
920.901	301.79
921.073	330.47
921.244	295.4
921.416	347.32
921.588	326.21
921.76	332.41
921.932	367.86
922.103	306.25
922.275	311.48
922.447	335.89
922.619	263.82
922.79	302.18
922.962	329.31
923.134	363.99
923.305	283
923.477	250.45
923.648	274.48
923.82	287.07
923.991	218.87
924.163	231.46
924.335	273.89
924.506	263.24
924.677	313.22
924.849	226.81
925.02	283.97
925.192	296.95
925.363	285.91
925.535	277.58
925.706	248.32
925.877	297.34
926.049	246.38
926.22	267.89
926.391	272.93
926.562	284.36
926.734	249.87
926.905	288.43
927.076	238.44
927.247	260.53
927.419	232.04
927.59	217.9
927.761	238.05
927.932	208.79
928.103	215.38
928.274	200.85
928.445	166.17
928.616	226.81
928.787	186.51
928.958	216.93
929.129	215.19
929.3	188.06
929.471	140.01
929.642	121.41
929.813	79.95
929.984	166.75
930.155	95.65
930.326	167.33
930.496	114.83
930.667	57.28
930.838	128.39
931.009	81.89
931.18	94.29
931.35	80.92
931.521	97.58
931.692	77.05
931.863	39.27
932.033	95.26
932.204	93.32
932.374	81.89
932.545	26.67
932.716	91.77
932.886	97.58
933.057	27.84
933.227	35.78
933.398	106.5
933.568	40.23
933.739	18.15
933.909	21.44
934.08	55.15
934.25	1.87
934.421	28.61
934.591	51.67
934.761	-12.46
934.932	-35.52
935.102	16.79
935.272	4.78
935.443	0.13
935.613	29.97
935.783	9.24
935.953	-13.24
936.123	149.12
936.294	-36.1
936.464	12.34
936.634	14.47
936.804	-17.89
936.974	-37.46
937.144	20.09
937.314	39.07
937.484	9.43
937.655	-10.33
937.825	60.58
937.995	7.3
938.165	72.2
938.334	20.47
938.504	33.26
938.674	-1.03
938.844	25.51
939.014	73.75
939.184	56.9
939.354	82.08
939.524	103.2
939.694	67.17
939.863	30.74
940.033	95.26
940.203	93.32
940.373	79.95
940.542	81.31
940.712	51.28
940.882	103.2
941.051	96.42
941.221	75.88
941.391	122.58
941.56	37.72
941.73	36.17
941.899	140.6
942.069	31.9
942.238	101.46
942.408	36.75
942.577	84.41
942.747	78.02
942.916	16.02
943.086	72.4
943.255	82.86
943.425	75.3
943.594	44.3
943.763	-9.95
943.933	11.37
944.102	-17.89
944.271	23.57
944.441	47.79
944.61	17.76
944.779	40.62
944.948	124.51
945.117	24.74
945.287	24.15
945.456	-7.23
945.625	10.98
945.794	60
945.963	-1.81
946.132	63.87
946.301	14.47
946.47	51.67
946.639	-1.42
946.808	16.6
946.977	37.72
947.146	85.96
947.315	38.1
947.484	62.52
947.653	24.35
947.822	27.25
947.991	24.15
948.16	85.96
948.329	73.17
948.498	25.51
948.666	27.84
948.835	68.13
949.004	4
949.173	-14.4
949.341	32.68
949.51	57.87
949.679	75.5
949.847	55.93
950.016	144.66
950.185	66.97
950.353	16.4
950.522	27.64
950.69	87.12
950.859	12.14
951.028	55.15
951.196	82.08
951.365	30.55
951.533	35.97
951.701	91.77
951.87	72.4
952.038	23.77
952.207	36.94
952.375	101.07
952.543	3.42
952.712	37.33
952.88	8.07
953.048	117.15
953.217	59.61
953.385	21.25
953.553	83.63
953.721	3.42
953.89	31.71
954.058	2.26
954.226	23.57
954.394	54.18
954.562	6.14
954.73	26.67
954.898	33.26
955.067	83.44
955.235	50.5
955.403	69.68
955.571	94.1
955.739	68.72
955.907	17.18
956.075	39.85
956.243	18.34
956.41	49.92
956.578	0.71
956.746	-4.91
956.914	-3.36
957.082	69.3
957.25	50.5
957.418	26.67
957.585	32.48
957.753	91.38
957.921	19.7
958.089	39.85
958.256	78.98
958.424	60
958.592	37.13
958.759	17.57
958.927	86.54
959.095	22.8
959.262	29.19
959.43	55.73
959.597	13.69
959.765	47.21
959.932	18.15
960.1	74.14
960.267	58.45
960.435	35.97
960.602	74.92
960.77	9.62
960.937	2.26
961.104	45.47
961.272	13.89
961.439	7.1
961.606	51.47
961.774	75.88
961.941	36.75
962.108	44.11
962.275	35.58
962.443	78.79
962.61	79.18
962.777	117.73
962.944	80.53
963.111	74.92
963.278	78.4
963.446	72.59
963.613	63.87
963.78	94.1
963.947	74.72
964.114	68.13
964.281	105.72
964.448	72.78
964.615	20.09
964.782	37.91
964.949	91
965.116	87.32
965.282	97
965.449	50.31
965.616	21.83
965.783	63.48
965.95	64.65
966.117	27.25
966.283	52.44
966.45	66.97
966.617	47.4
966.784	110.76
966.95	86.15
967.117	92.74
967.284	23.77
967.45	37.72
967.617	107.08
967.784	66.2
967.95	111.53
968.117	74.33
968.283	98.36
968.45	135.95
968.616	96.42
968.783	114.05
968.949	94.29
969.116	122
969.282	63.48
969.449	84.22
969.615	63.1
969.781	10.4
969.948	55.93
970.114	32.48
970.28	130.91
970.447	78.4
970.613	104.37
970.779	82.86
970.945	60.58
971.112	80.15
971.278	85.18
971.444	79.57
971.61	96.23
971.776	49.34
971.942	94.48
972.108	72.4
972.275	61.93
972.441	80.34
972.607	113.67
972.773	53.41
972.939	77.24
973.105	78.98
973.271	36.75
973.437	35.58
973.602	41.01
973.768	77.43
973.934	47.6
974.1	73.17
974.266	10.98
974.432	57.67
974.598	42.17
974.763	83.44
974.929	40.62
975.095	115.02
975.261	37.72
975.426	25.32
975.592	55.54
975.758	168.3
975.923	15.24
976.089	41.98
976.255	76.08
976.42	73.17
976.586	85.57
976.751	74.92
976.917	142.53
977.082	90.03
977.248	27.06
977.413	16.99
977.579	62.71
977.744	70.46
977.91	17.18
978.075	30.93
978.24	72.78
978.406	78.6
978.571	46.05
978.736	39.85
978.902	51.08
979.067	16.02
979.232	-2.97
979.397	67.75
979.563	119.67
979.728	35.58
979.893	61.16
980.058	47.4
980.223	75.3
980.388	87.51
980.554	58.45
980.719	29.58
980.884	56.32
981.049	108.43
981.214	26.09
981.379	65.42
981.544	56.32
981.709	25.51
981.874	53.41
982.039	67.94
982.204	83.63
982.368	89.06
982.533	1.49
982.698	62.52
982.863	77.24
983.028	30.16
983.193	88.48
983.357	59.42
983.522	54.18
983.687	61.35
983.852	49.73
984.016	38.3
984.181	57.87
984.346	92.16
984.51	97
984.675	83.63
984.839	83.63
985.004	99.72
985.168	85.38
985.333	46.24
985.498	74.72
985.662	93.71
985.827	99.91
985.991	54.96
986.155	56.32
986.32	93.13
986.484	121.03
986.649	81.7
986.813	3.81
986.977	72.01
987.142	87.12
987.306	11.95
987.47	29.77
987.634	56.9
987.799	59.61
987.963	40.43
988.127	77.63
988.291	101.65
988.455	89.06
988.62	54.57
988.784	65.23
988.948	77.24
989.112	31.9
989.276	89.64
989.44	59.8
989.604	29.77
989.768	37.33
989.932	102.04
990.096	26.87
990.26	29.58
990.424	15.63
990.588	58.25
990.752	102.23
990.915	56.12
991.079	48.76
991.243	47.21
991.407	94.87
991.571	46.24
991.734	71.04
991.898	81.12
992.062	148.15
992.226	52.44
992.389	34.81
992.553	-6.46
992.717	-14.6
992.88	32.87
993.044	46.43
993.207	31.13
993.371	74.72
993.535	96.81
993.698	71.43
993.862	70.85
994.025	70.07
994.189	80.53
994.352	35.39
994.515	29.58
994.679	103.59
994.842	44.11
995.006	61.55
995.169	22.99
995.332	45.85
995.496	79.57
995.659	1.1
995.822	51.47
995.985	32.68
996.149	81.31
996.312	36.75
996.475	128.97
996.638	26.48
996.801	80.53
996.964	101.46
997.128	33.65
997.291	23.19
997.454	47.21
997.617	-15.56
997.78	73.37
997.943	43.14
998.106	77.24
998.269	42.75
998.432	37.33
998.595	60.97
998.758	27.84
998.92	16.4
999.083	-11.5
999.246	34.23
999.409	5.55
999.572	-7.04
999.735	44.88
999.897	79.37
1000.06	33.07
1000.223	25.32
1000.386	66.58
1000.548	72.01
1000.711	59.8
1000.874	50.7
1001.036	7.69
1001.199	49.15
1001.361	13.69
1001.524	38.1
1001.687	57.48
1001.849	29.38
1002.012	35.58
1002.174	29
1002.337	77.63
1002.499	13.89
1002.661	68.13
1002.824	-23.12
1002.986	22.41
1003.149	46.63
1003.311	-10.72
1003.473	79.18
1003.636	29.19
1003.798	58.64
1003.96	65.03
1004.123	43.53
1004.285	28.61
1004.447	32.1
1004.609	29.77
1004.771	110.57
1004.933	-8.01
1005.096	6.33
1005.258	-10.72
1005.42	23.77
1005.582	57.87
1005.744	38.1
1005.906	8.65
1006.068	35.97
1006.23	8.07
1006.392	-15.18
1006.554	-3.94
1006.716	63.68
1006.878	42.56
1007.04	35.39
1007.202	9.24
1007.363	43.72
1007.525	51.28
1007.687	42.56
1007.849	79.18
1008.011	5.36
1008.172	-21.57
1008.334	26.48
1008.496	32.29
1008.658	-42.11
1008.819	4.97
1008.981	-17.11
1009.143	-5.88
1009.304	15.05
1009.466	47.98
1009.627	76.85
1009.789	107.08
1009.95	17.95
1010.112	28.61
1010.273	38.49
1010.435	16.6
1010.596	17.18
1010.758	36.17
1010.919	32.1
1011.081	-1.61
1011.242	20.47
1011.403	43.92
1011.565	16.02
1011.726	45.85
1011.887	-25.25
1012.049	24.54
1012.21	49.92
1012.371	69.49
1012.532	-33.97
1012.693	19.12
1012.855	-22.54
1013.016	20.09
1013.177	51.28
1013.338	19.5
1013.499	82.67
1013.66	46.63
1013.821	36.36
1013.982	14.08
1014.143	24.15
1014.304	-7.43
1014.465	14.27
1014.626	47.4
1014.787	-2.58
1014.948	88.09
1015.109	-51.41
1015.27	72.59
1015.431	-4.13
1015.592	-4.33
1015.752	64.84
1015.913	31.52
1016.074	18.15
1016.235	38.49
1016.395	-1.03
1016.556	7.88
1016.717	17.76
1016.877	44.69
1017.038	-0.65
1017.199	-3.16
1017.359	11.75
1017.52	32.48
1017.681	4.2
1017.841	12.34
1018.002	-1.42
1018.162	34.42
1018.323	76.85
1018.483	-1.42
1018.644	-17.5
1018.804	-9.36
1018.964	-3.16
1019.125	-5.3
1019.285	35.58
1019.446	-26.41
1019.606	-35.71
1019.766	-16.34
1019.926	20.09
1020.087	24.93
1020.247	-28.16
1020.407	46.82
1020.567	50.7
1020.728	-12.08
1020.888	-20.21
1021.048	2.84
1021.208	-10.53
1021.368	-6.46
1021.528	59.42
1021.688	33.65
1021.848	14.47
1022.008	34.81
1022.168	5.36
1022.328	15.24
1022.488	36.55
1022.648	-17.7
1022.808	33.65
1022.968	27.06
1023.128	10.2
1023.288	-0.06
1023.448	-13.63
1023.608	33.45
1023.767	13.69
1023.927	-3.55
1024.087	-14.98
1024.247	-39.78
1024.406	-13.24
1024.566	-11.88
1024.726	-17.89
1024.885	7.49
1025.045	30.93
1025.205	-3.16
1025.364	-1.61
1025.524	10.59
1025.683	-7.81
1025.843	26.29
1026.003	9.04
1026.162	66.78
1026.321	24.93
1026.481	-3.36
1026.64	1.1
1026.8	25.51
1026.959	18.92
1027.119	8.85
1027.278	-9.56
1027.437	3.42
1027.597	17.37
1027.756	29.77
1027.915	29.77
1028.074	9.62
1028.234	-16.53
1028.393	36.94
1028.552	-14.98
1028.711	-37.26
1028.87	25.32
1029.03	-37.85
1029.189	13.89
1029.348	-36.49
1029.507	-14.01
1029.666	-24.28
1029.825	-24.67
1029.984	-19.44
1030.143	4.78
1030.302	-16.15
1030.461	-35.13
1030.62	-6.65
1030.779	22.99
1030.938	-29.9
1031.097	-28.74
1031.255	60.58
1031.414	46.05
1031.573	24.35
1031.732	-51.41
1031.891	-11.5
1032.049	45.85
1032.208	17.95
1032.367	-18.28
1032.525	-35.33
1032.684	4.2
1032.843	-2.97
1033.001	-58
1033.16	126.45
1033.319	46.24
1033.477	15.05
1033.636	-1.23
1033.794	-36.49
1033.953	11.37
1034.111	14.85
1034.27	-0.06
1034.428	31.52
1034.587	-27.58
1034.745	-6.26
1034.903	-2.39
1035.062	49.15
1035.22	-23.31
1035.378	24.15
1035.537	-9.95
1035.695	22.41
1035.853	7.1
1036.011	40.82
1036.17	11.37
1036.328	-55.28
1036.486	20.67
1036.644	17.57
1036.802	-62.84
1036.96	-15.37
1037.119	32.68
1037.277	-13.43
1037.435	-48.7
1037.593	-20.41
1037.751	12.34
1037.909	21.64
1038.067	21.64
