Data from oakcork_FLMT105791__273__17-34-19-052.txt Node

Date: Mon Mar 20 17:34:19 GMT 2023
User: antho
Spectrometer: FLMT10579
Trigger mode: 0
Integration Time (sec): 1.000000E-1
Scans to average: 10
Electric dark correction enabled: true
Nonlinearity correction enabled: false
Boxcar width: 0
XAxis mode: Wavelengths
Number of Pixels in Spectrum: 3648
>>>>>Begin Spectral Data<<<<<
345.248	-153.87
345.464	-153.87
345.681	-153.87
345.898	-151.93
346.114	-129.46
346.331	-33.55
346.548	25.93
346.764	-3.52
346.981	-1
347.197	-16.5
347.414	6.94
347.631	-20.18
347.847	77.66
348.064	-27.35
348.28	30.39
348.497	-35.1
348.713	-3.71
348.93	41.24
349.146	0.74
349.363	6.75
349.579	10.04
349.796	3.84
350.012	-16.31
350.229	34.07
350.445	5.01
350.661	-12.63
350.878	5.59
351.094	10.82
351.311	10.24
351.527	23.41
351.743	-12.24
351.96	9.27
352.176	24.57
352.392	34.07
352.609	40.07
352.825	8.88
353.041	-3.91
353.257	-7.2
353.474	1.32
353.69	4.42
353.906	32.52
354.122	-30.06
354.339	42.59
354.555	37.36
354.771	-5.46
354.987	44.34
355.203	35.42
355.42	-18.24
355.636	-30.64
355.852	-14.18
356.068	-2.16
356.284	-25.8
356.5	7.72
356.716	30.97
356.932	24.96
357.148	36
357.364	21.67
357.58	23.6
357.796	66.81
358.012	43.95
358.228	30.58
358.444	-52.34
358.66	34.84
358.876	16.44
359.092	-17.47
359.308	23.6
359.524	15.08
359.74	14.69
359.956	-6.04
360.172	-3.33
360.388	30.58
360.604	-8.75
360.819	67.39
361.035	-0.81
361.251	19.73
361.467	-11.66
361.683	55.19
361.898	15.66
362.114	35.42
362.33	27.09
362.546	27.48
362.762	8.11
362.977	19.54
363.193	3.46
363.409	26.32
363.624	6.94
363.84	3.65
364.056	4.04
364.271	34.07
364.487	5.59
364.703	-16.69
364.918	-7.01
365.134	16.05
365.35	-26.58
365.565	80.95
365.781	31.16
365.996	11.98
366.212	46.66
366.427	26.7
366.643	-13.98
366.858	-1.58
367.074	13.53
367.289	54.99
367.505	104.98
367.72	-27.93
367.936	13.34
368.151	59.45
368.367	32.13
368.582	4.23
368.798	20.12
369.013	61.39
369.228	16.44
369.444	19.34
369.659	62.94
369.874	38.14
370.09	65.84
370.305	-37.04
370.52	4.81
370.736	40.65
370.951	-16.69
371.166	49.18
371.381	68.36
371.597	54.6
371.812	-22.7
372.027	3.26
372.242	-2.94
372.458	74.17
372.673	8.49
372.888	3.07
373.103	19.92
373.318	79.02
373.533	22.05
373.749	41.43
373.964	-6.23
374.179	59.84
374.394	-1.39
374.609	69.52
374.824	-8.36
375.039	54.02
375.254	16.44
375.469	72.24
375.684	-3.91
375.899	63.13
376.114	35.23
376.329	31.55
376.544	29.42
376.759	42.01
376.974	-2.36
377.189	0.55
377.404	5.39
377.619	41.82
377.834	-35.49
378.049	-37.43
378.264	-11.08
378.478	15.08
378.693	16.05
378.908	30.97
379.123	17.4
379.338	60.03
379.553	30.39
379.767	25.74
379.982	53.25
380.197	39.69
380.412	42.59
380.626	22.05
380.841	65.45
381.056	21.28
381.271	68.75
381.485	-0.03
381.7	1.13
381.915	44.53
382.129	3.46
382.344	31.55
382.559	14.11
382.773	61.97
382.988	-27.93
383.202	40.27
383.417	-0.23
383.632	100.72
383.846	26.51
384.061	37.94
384.275	10.43
384.49	11.59
384.704	44.92
384.919	32.71
385.133	38.33
385.348	44.14
385.562	-10.11
385.777	54.8
385.991	18.18
386.206	33.49
386.42	17.6
386.634	67.78
386.849	50.15
387.063	37.55
387.277	-0.03
387.492	-9.91
387.706	16.24
387.92	-5.84
388.135	45.69
388.349	31.16
388.563	53.44
388.778	51.5
388.992	57.9
389.206	62.74
389.42	85.8
389.635	17.79
389.849	31.16
390.063	76.89
390.277	34.84
390.491	83.67
390.706	47.82
390.92	67.78
391.134	39.69
391.348	34.26
391.562	-2.16
391.776	27.48
391.99	25.35
392.205	63.71
392.419	22.25
392.633	9.85
392.847	85.99
393.061	27.48
393.275	67.2
393.489	30.39
393.703	40.46
393.917	47.44
394.131	13.92
394.345	69.72
394.559	49.18
394.773	23.02
394.986	55.96
395.2	27.87
395.414	56.35
395.628	14.5
395.842	35.62
396.056	-6.04
396.27	-28.71
396.484	55.38
396.697	43.17
396.911	74.95
397.125	46.85
397.339	52.47
397.553	43.37
397.766	68.94
397.98	67.59
398.194	68.55
398.408	11.59
398.621	67.2
398.835	70.88
399.049	29.03
399.262	94.13
399.476	51.5
399.69	68.94
399.903	102.85
400.117	55.96
400.331	86.57
400.544	35.42
400.758	140.43
400.971	53.44
401.185	74.56
401.398	31.16
401.612	94.13
401.826	68.36
402.039	70.69
402.253	34.45
402.466	61
402.68	54.8
402.893	50.15
403.106	53.25
403.32	12.56
403.533	54.41
403.747	66.42
403.96	46.85
404.174	67.2
404.387	18.37
404.6	34.84
404.814	82.89
405.027	53.83
405.24	47.44
405.454	53.64
405.667	84.44
405.88	11.79
406.094	79.6
406.307	76.5
406.52	46.27
406.733	32.32
406.947	-4.49
407.16	105.95
407.373	108.66
407.586	36
407.799	35.04
408.012	90.84
408.226	60.22
408.439	102.07
408.652	24.77
408.865	75.34
409.078	92
409.291	74.17
409.504	11.59
409.717	74.75
409.93	73.2
410.143	66.23
410.357	5.97
410.57	13.72
410.783	59.06
410.996	68.94
411.209	52.47
411.421	71.85
411.634	26.9
411.847	1.32
412.06	67.97
412.273	70.88
412.486	83.47
412.699	149.35
412.912	38.33
413.125	78.05
413.338	79.79
413.55	95.1
413.763	61
413.976	93.35
414.189	41.43
414.402	59.64
414.615	100.72
414.827	58.67
415.04	73.98
415.253	87.15
415.466	77.47
415.678	114.28
415.891	61.39
416.104	71.46
416.316	65.84
416.529	50.54
416.742	102.07
416.954	95.68
417.167	42.79
417.38	56.35
417.592	83.47
417.805	47.05
418.017	17.79
418.23	96.07
418.442	52.86
418.655	35.04
418.868	93.35
419.08	94.9
419.293	80.76
419.505	92.97
419.718	81.15
419.93	113.31
420.142	78.24
420.355	111.37
420.567	130.17
420.78	87.93
420.992	80.37
421.205	109.43
421.417	43.17
421.629	53.64
421.842	44.72
422.054	23.41
422.266	80.18
422.479	116.41
422.691	32.52
422.903	73.98
423.115	70.3
423.328	81.73
423.54	69.91
423.752	58.87
423.964	75.72
424.177	86.19
424.389	67.78
424.601	184.61
424.813	87.74
425.025	101.69
425.238	90.25
425.45	65.65
425.662	73.79
425.874	329.73
426.086	68.94
426.298	83.86
426.51	74.95
426.722	88.9
426.934	53.05
427.146	118.73
427.358	33.68
427.57	129.58
427.782	64.87
427.994	75.72
428.206	54.6
428.418	32.9
428.63	99.17
428.842	92.39
429.054	72.24
429.266	110.21
429.478	46.27
429.69	80.95
429.902	13.92
430.114	114.08
430.325	88.9
430.537	63.71
430.749	91.42
430.961	56.35
431.173	54.22
431.384	100.33
431.596	38.72
431.808	44.72
432.02	106.92
432.231	95.68
432.443	107.88
432.655	54.22
432.867	60.42
433.078	103.82
433.29	154.19
433.502	104.59
433.713	96.07
433.925	102.65
434.136	121.83
434.348	59.25
434.56	53.83
434.771	193.52
434.983	43.75
435.194	41.04
435.406	73.98
435.617	136.17
435.829	138.69
436.04	124.16
436.252	98.39
436.463	128.62
436.675	135.4
436.886	130.75
437.098	93.94
437.309	141.98
437.521	97.81
437.732	132.49
437.943	105.95
438.155	114.08
438.366	45.89
438.578	143.15
438.789	102.65
439	137.72
439.211	115.63
439.423	117.57
439.634	112.53
439.845	133.85
440.057	94.9
440.268	128.23
440.479	104.78
440.69	128.23
440.902	113.89
441.113	93.55
441.324	109.05
441.535	96.07
441.746	172.79
441.957	94.71
442.168	75.72
442.38	131.33
442.591	144.31
442.802	66.42
443.013	70.88
443.224	108.27
443.435	104.98
443.646	89.67
443.857	106.33
444.068	90.64
444.279	105.56
444.49	175.7
444.701	123.19
444.912	213.48
445.123	136.95
445.334	119.12
445.545	111.76
445.756	127.65
445.967	85.22
446.178	119.9
446.388	154.97
446.599	139.27
446.81	147.99
447.021	136.17
447.232	155.55
447.443	178.8
447.653	94.32
447.864	148.57
448.075	111.95
448.286	165.82
448.496	131.52
448.707	129.2
448.918	144.7
449.129	202.82
449.339	110.98
449.55	137.53
449.761	117.18
449.971	170.08
450.182	114.28
450.393	170.27
450.603	116.99
450.814	154.77
451.024	160.39
451.235	168.92
451.446	161.17
451.656	192.55
451.867	124.93
452.077	149.93
452.288	185.77
452.498	212.12
452.709	140.63
452.919	155.74
453.13	112.92
453.34	192.55
453.55	98
453.761	178.41
453.971	125.32
454.182	148.77
454.392	145.86
454.602	235.18
454.813	150.12
455.023	156.71
455.233	99.36
455.444	155.74
455.654	89.09
455.864	113.31
456.075	122.42
456.285	117.96
456.495	147.22
456.705	138.88
456.916	178.6
457.126	200.88
457.336	149.35
457.546	113.5
457.756	121.06
457.967	195.46
458.177	129.2
458.387	155.55
458.597	131.72
458.807	124.16
459.017	139.66
459.227	153.8
459.437	160.78
459.647	185
459.857	164.27
460.068	125.9
460.278	171.24
460.488	152.45
460.698	190.42
460.908	144.5
461.117	111.18
461.327	137.53
461.537	125.13
461.747	151.48
461.957	136.56
462.167	250.1
462.377	185.38
462.587	158.65
462.797	182.09
463.007	159.81
463.216	172.4
463.426	226.07
463.636	187.71
463.846	119.12
464.056	147.99
464.265	206.7
464.475	132.68
464.685	157.48
464.895	181.32
465.104	170.47
465.314	173.57
465.524	157.87
465.733	138.3
465.943	211.15
466.153	222.97
466.362	201.27
466.572	169.3
466.782	161.55
466.991	170.08
467.201	222.97
467.41	125.9
467.62	204.76
467.829	166.59
468.039	168.14
468.249	162.91
468.458	190.23
468.668	207.28
468.877	193.13
469.086	224.13
469.296	195.26
469.505	158.07
469.715	251.84
469.924	181.7
470.134	225.49
470.343	234.6
470.552	175.7
470.762	162.52
470.971	161.17
471.18	179.57
471.39	199.14
471.599	141.02
471.808	215.41
472.018	154.38
472.227	232.46
472.436	220.84
472.645	195.85
472.855	153.61
473.064	234.21
473.273	210.18
473.482	212.51
473.691	225.49
473.901	210.57
474.11	190.23
474.319	251.45
474.528	211.35
474.737	235.37
474.946	232.46
475.155	211.54
475.364	237.89
475.573	186.74
475.783	219.48
475.992	228.2
476.201	256.3
476.41	185.97
476.619	204.95
476.828	202.05
477.037	207.86
477.245	205.15
477.454	243.31
477.663	202.24
477.872	190.03
478.081	264.82
478.29	207.66
478.499	283.81
478.708	222.78
478.917	276.45
479.125	245.06
479.334	235.56
479.543	209.41
479.752	214.25
479.961	255.33
480.169	284.97
480.378	211.15
480.587	312.09
480.796	258.81
481.004	244.09
481.213	252.42
481.422	252.03
481.63	247.58
481.839	270.05
482.048	280.9
482.256	235.95
482.465	260.95
482.674	276.64
482.882	258.23
483.091	320.23
483.299	288.26
483.508	314.61
483.716	246.61
483.925	272.18
484.134	265.21
484.342	263.08
484.551	284.58
484.759	286.13
484.967	266.76
485.176	294.85
485.384	308.8
485.593	305.12
485.801	302.41
486.01	291.36
486.218	263.66
486.426	214.64
486.635	263.46
486.843	272.57
487.051	282.45
487.26	269.08
487.468	278.58
487.676	278.77
487.885	269.47
488.093	307.64
488.301	276.06
488.509	310.35
488.717	289.43
488.926	282.84
489.134	250.87
489.342	277.22
489.55	265.4
489.758	294.46
489.967	285.55
490.175	362.08
490.383	284.39
490.591	354.33
490.799	236.15
491.007	325.85
491.215	339.22
491.423	330.69
491.631	324.11
491.839	286.71
492.047	344.45
492.255	300.28
492.463	269.08
492.671	324.88
492.879	343.87
493.087	303.76
493.295	324.49
493.503	325.08
493.711	334.76
493.919	342.9
494.127	334.18
494.334	368.47
494.542	308.41
494.75	334.76
494.958	290.01
495.166	364.99
495.374	334.18
495.581	339.61
495.789	345.42
495.997	395.79
496.205	327.01
496.412	315
496.62	337.09
496.828	347.55
497.035	316.16
497.243	348.71
497.451	362.66
497.658	346.78
497.866	341.16
498.074	402.19
498.281	334.57
498.489	428.92
498.696	326.24
498.904	355.11
499.112	326.04
499.319	419.24
499.527	337.09
499.734	392.69
499.942	288.26
500.149	317.13
500.357	368.47
500.564	323.33
500.771	359.18
500.979	327.01
501.186	333.6
501.394	365.57
501.601	334.57
501.808	388.43
502.016	371.38
502.223	374.87
502.43	361.89
502.638	334.18
502.845	330.89
503.052	416.52
503.26	344.64
503.467	386.88
503.674	357.63
503.881	342.71
504.089	444.04
504.296	381.46
504.503	343.48
504.71	346.78
504.917	317.33
505.125	368.09
505.332	365.76
505.539	389.59
505.746	433.96
505.953	418.46
506.16	364.21
506.367	416.52
506.574	422.14
506.781	429.12
506.988	346.78
507.195	386.11
507.402	388.62
507.609	391.53
507.816	381.84
508.023	383.59
508.23	380.68
508.437	351.62
508.644	422.34
508.851	419.24
509.058	422.14
509.265	410.13
509.472	420.79
509.679	482.01
509.885	368.28
510.092	381.65
510.299	376.81
510.506	399.67
510.713	413.42
510.92	432.99
511.126	408.77
511.333	443.26
511.54	418.66
511.746	465.15
511.953	443.26
512.16	443.65
512.367	428.34
512.573	426.79
512.78	403.93
512.987	432.61
513.193	420.98
513.4	401.41
513.606	405.09
513.813	429.31
514.02	398.12
514.226	504.49
514.433	497.32
514.639	385.72
514.846	411.87
515.052	411.68
515.259	455.47
515.465	428.73
515.672	415.75
515.878	514.37
516.085	438.42
516.291	456.05
516.497	422.92
516.704	415.75
516.91	398.89
517.117	387.46
517.323	372.35
517.529	434.93
517.736	422.14
517.942	420.4
518.148	401.61
518.354	433.96
518.561	447.91
518.767	445.97
518.973	486.66
519.179	454.3
519.386	431.06
519.592	429.12
519.798	415.17
520.004	485.89
520.21	419.24
520.417	473.29
520.623	490.34
520.829	501.58
521.035	494.6
521.241	468.06
521.447	481.62
521.653	585.08
521.859	482.59
522.065	486.85
522.271	568.81
522.477	504.29
522.683	542.27
522.889	523.86
523.095	497.7
523.301	502.55
523.507	464.38
523.713	546.33
523.919	482.79
524.125	547.88
524.331	489.95
524.537	590.12
524.742	536.65
524.948	556.99
525.154	550.98
525.36	643.98
525.566	551.18
525.772	581.6
525.977	509.14
526.183	576.95
526.389	564.93
526.595	539.75
526.8	559.32
527.006	512.04
527.212	487.63
527.417	472.52
527.623	476.78
527.829	542.46
528.034	550.21
528.24	570.36
528.446	509.72
528.651	590.51
528.857	583.53
529.062	621.7
529.268	569.39
529.473	570.17
529.679	569.78
529.884	619.77
530.09	624.03
530.295	646.89
530.501	622.09
530.706	627.32
530.912	586.83
531.117	580.24
531.323	566.48
531.528	600.58
531.733	630.81
531.939	593.03
532.144	613.18
532.35	613.76
532.555	618.8
532.76	609.11
532.966	616.86
533.171	655.41
533.376	578.3
533.581	586.83
533.787	604.07
533.992	627.71
534.197	625.58
534.402	622.87
534.607	674.01
534.813	727.49
535.018	628.68
535.223	604.85
535.428	655.8
535.633	679.83
535.838	643.4
536.043	628.48
536.249	696.3
536.454	614.15
536.659	650.57
536.864	627.51
537.069	646.31
537.274	674.98
537.479	660.84
537.684	661.03
537.889	607.56
538.094	709.47
538.299	665.3
538.504	693.2
538.708	667.81
538.913	674.6
539.118	651.73
539.323	665.88
539.528	626.35
539.733	643.6
539.938	693.78
540.142	712.38
540.347	629.65
540.552	607.17
540.757	658.32
540.962	637.4
541.166	610.47
541.371	632.75
541.576	653.09
541.781	584.12
541.985	643.4
542.19	656.19
542.395	693.39
542.599	721.09
542.804	703.08
543.008	688.74
543.213	635.46
543.418	632.16
543.622	689.13
543.827	679.44
544.031	707.92
544.236	713.15
544.44	680.21
544.645	744.15
544.849	659.68
545.054	676.92
545.258	753.26
545.463	709.28
545.667	678.47
545.872	689.13
546.076	733.88
546.281	715.86
546.485	634.68
546.689	737.95
546.894	734.08
547.098	663.75
547.302	658.13
547.507	693.39
547.711	726.71
547.915	737.56
548.119	680.21
548.324	674.6
548.528	752.09
548.732	736.4
548.936	729.04
549.141	735.82
549.345	700.75
549.549	703.27
549.753	674.98
549.957	766.24
550.161	759.26
550.366	714.89
550.57	690.48
550.774	697.07
550.978	707.92
551.182	712.57
551.386	698.43
551.59	694.55
551.794	699.2
551.998	709.28
552.202	681.18
552.406	674.79
552.61	708.11
552.814	714.89
553.018	756.36
553.222	684.86
553.426	702.5
553.63	766.24
553.833	696.88
554.037	660.65
554.241	744.15
554.445	696.1
554.649	699.01
554.853	677.11
555.056	723.03
555.26	732.33
555.464	699.2
555.668	712.76
555.871	734.27
556.075	736.21
556.279	678.86
556.483	664.71
556.686	705.98
556.89	693.78
557.094	718.96
557.297	659.29
557.501	730.78
557.704	658.51
557.908	746.86
558.112	656.77
558.315	761.59
558.519	710.83
558.722	693.78
558.926	689.13
559.129	629.06
559.333	623.64
559.536	637.01
559.74	657.74
559.943	644.95
560.147	648.63
560.35	674.4
560.553	658.71
560.757	625.38
560.96	738.14
561.164	612.79
561.367	727.29
561.57	630.61
561.774	667.23
561.977	678.47
562.18	638.36
562.384	716.64
562.587	643.79
562.79	663.94
562.993	640.69
563.197	724.19
563.4	706.18
563.603	705.4
563.806	738.73
564.009	620.73
564.212	656.96
564.416	641.08
564.619	674.4
564.822	631.78
565.025	684.28
565.228	651.93
565.431	653.67
565.634	588.96
565.837	612.4
566.04	616.47
566.243	635.07
566.446	549.24
566.649	672.85
566.852	612.6
567.055	601.75
567.258	655.8
567.461	685.25
567.664	662.58
567.867	551.57
568.07	639.14
568.273	616.86
568.475	633.91
568.678	587.6
568.881	609.3
569.084	635.07
569.287	537.23
569.489	560.28
569.692	598.07
569.895	606.01
570.098	577.92
570.3	547.69
570.503	511.27
570.706	550.4
570.909	544.98
571.111	516.89
571.314	544.59
571.516	551.76
571.719	560.87
571.922	533.16
572.124	543.04
572.327	589.15
572.529	518.24
572.732	507.39
572.935	528.12
573.137	612.4
573.34	513.79
573.542	575.2
573.745	543.82
573.947	553.7
574.15	534.71
574.352	516.89
574.554	578.5
574.757	510.88
574.959	510.69
575.162	501.19
575.364	486.08
575.566	601.36
575.769	503.9
575.971	549.05
576.173	442.87
576.376	536.65
576.578	539.36
576.78	590.7
576.982	457.6
577.185	525.99
577.387	471.94
577.589	470.58
577.791	519.6
577.993	545.95
578.196	477.55
578.398	544.2
578.6	554.47
578.802	462.64
579.004	494.6
579.206	487.44
579.408	531.8
579.61	484.34
579.812	515.14
580.014	501.58
580.216	486.08
580.418	473.49
580.62	458.95
580.822	438.22
581.024	486.08
581.226	525.02
581.428	455.47
581.63	571.91
581.832	485.89
582.034	520.76
582.236	489.37
582.438	507
582.64	540.33
582.841	556.41
583.043	606.59
583.245	531.22
583.447	512.82
583.649	515.14
583.85	500.22
584.052	535.1
584.254	459.15
584.456	520.57
584.657	468.06
584.859	506.81
585.061	498.09
585.262	457.99
585.464	473.1
585.666	502.16
585.867	467.67
586.069	572.68
586.27	494.22
586.472	514.17
586.674	475.23
586.875	475.42
587.077	476.59
587.278	499.25
587.48	441.52
587.681	565.32
587.883	484.34
588.084	440.74
588.285	463.6
588.487	451.01
588.688	492.09
588.89	435.51
589.091	425.24
589.292	476.78
589.494	408.97
589.695	440.36
589.896	391.53
590.098	348.71
590.299	444.62
590.5	378.36
590.702	442.1
590.903	453.14
591.104	494.02
591.305	435.12
591.507	486.47
591.708	431.44
591.909	435.12
592.11	510.88
592.311	474.26
592.512	456.24
592.714	430.47
592.915	421.76
593.116	439
593.317	442.87
593.518	446.36
593.719	428.54
593.92	440.94
594.121	481.82
594.322	432.61
594.523	445.2
594.724	384.56
594.925	426.02
595.126	442.68
595.327	477.55
595.528	461.09
595.729	430.67
595.929	427.96
596.13	432.02
596.331	419.82
596.532	438.42
596.733	487.82
596.934	455.27
597.135	455.66
597.335	455.66
597.536	413.04
597.737	438.03
597.938	415.36
598.138	450.43
598.339	436.48
598.54	426.21
598.74	458.37
598.941	443.84
599.142	464.38
599.342	447.33
599.543	429.31
599.744	431.06
599.944	432.02
600.145	408.19
600.345	437.64
600.546	503.9
600.746	493.83
600.947	507
601.147	460.12
601.348	456.05
601.548	414.97
601.749	446.17
601.949	411.68
602.15	430.09
602.35	426.79
602.551	469.61
602.751	406.64
602.951	399.67
603.152	382.42
603.352	462.05
603.552	408
603.753	442.49
603.953	445.97
604.153	437.26
604.354	429.7
604.554	421.17
604.754	426.79
604.954	394.05
605.155	449.66
605.355	415.94
605.555	454.69
605.755	486.27
605.955	433.19
606.155	465.93
606.356	441.71
606.556	478.72
606.756	450.04
606.956	409.16
607.156	461.86
607.356	429.89
607.556	459.34
607.756	415.56
607.956	467.29
608.156	440.74
608.356	394.44
608.556	477.36
608.756	421.76
608.956	412.84
609.156	443.46
609.356	401.99
609.556	388.24
609.755	450.04
609.955	395.6
610.155	420.79
610.355	400.25
610.555	378.36
610.755	429.12
610.954	375.45
611.154	424.08
611.354	438.42
611.554	402.19
611.753	398.12
611.953	377.77
612.153	434.74
612.352	407.61
612.552	377.58
612.752	340.58
612.951	406.64
613.151	408.58
613.351	392.89
613.55	398.31
613.75	406.64
613.949	398.7
614.149	399.28
614.348	378.16
614.548	389.59
614.747	334.38
614.947	378.16
615.146	333.99
615.346	410.52
615.545	405.09
615.745	413.23
615.944	429.51
616.144	369.44
616.343	442.49
616.542	360.53
616.742	399.09
616.941	389.01
617.14	339.61
617.34	366.54
617.539	362.86
617.738	362.47
617.938	412.26
618.137	360.53
618.336	358.21
618.535	400.25
618.734	368.09
618.934	403.35
619.133	373.12
619.332	388.43
619.531	363.44
619.73	358.01
619.929	385.14
620.128	374.67
620.328	439.19
620.527	369.06
620.726	357.24
620.925	393.86
621.124	355.69
621.323	377.97
621.522	344.64
621.721	359.76
621.92	323.91
622.119	393.86
622.318	373.71
622.517	371.77
622.715	369.83
622.914	328.76
623.113	357.24
623.312	302.21
623.511	379.91
623.71	323.14
623.909	353.94
624.107	390.76
624.306	289.81
624.505	339.22
624.704	339.41
624.902	323.14
625.101	395.02
625.3	355.11
625.499	318.1
625.697	353.75
625.896	322.94
626.095	385.14
626.293	318.1
626.492	316.74
626.69	353.94
626.889	320.43
627.088	340.77
627.286	308.99
627.485	316.94
627.683	325.08
627.882	355.49
628.08	276.45
628.279	312.68
628.477	396.57
628.676	309.38
628.874	340.77
629.073	311.9
629.271	317.91
629.469	365.18
629.668	308.8
629.866	329.14
630.065	327.01
630.263	329.92
630.461	308.99
630.66	329.53
630.858	338.83
631.056	340.19
631.254	367.51
631.453	304.73
631.651	360.92
631.849	322.56
632.047	315.78
632.245	337.28
632.444	339.41
632.642	341.16
632.84	358.98
633.038	319.46
633.236	306.48
633.434	319.65
633.632	291.17
633.83	269.47
634.028	332.24
634.227	320.23
634.425	366.15
634.623	323.14
634.821	334.18
635.019	307.64
635.216	303.18
635.414	332.05
635.612	337.67
635.81	315.58
636.008	339.03
636.206	343.48
636.404	365.76
636.602	291.94
636.8	313.45
636.997	321.2
637.195	326.04
637.393	343.68
637.591	375.84
637.789	331.28
637.986	316.36
638.184	318.1
638.382	361.11
638.58	361.69
638.777	379.71
638.975	329.34
639.173	341.16
639.37	329.53
639.568	326.63
639.765	359.56
639.963	329.34
640.161	381.84
640.358	355.88
640.556	298.14
640.753	291.36
640.951	285.55
641.148	324.69
641.346	326.04
641.543	298.53
641.741	338.83
641.938	296.98
642.136	319.26
642.333	311.13
642.531	371.77
642.728	368.67
642.925	314.03
643.123	286.52
643.32	315.19
643.517	293.88
643.715	304.93
643.912	306.67
644.109	304.15
644.306	296.4
644.504	277.41
644.701	316.16
644.898	348.33
645.095	280.9
645.293	314.61
645.49	322.36
645.687	313.84
645.884	325.08
646.081	255.71
646.278	321.78
646.475	276.25
646.672	278.58
646.87	297.76
647.067	308.03
647.264	311.13
647.461	257.46
647.658	219.1
647.855	312.87
648.052	300.66
648.249	196.23
648.446	247.96
648.642	278.77
648.839	280.51
649.036	265.98
649.233	251.65
649.43	241.96
649.627	236.92
649.824	264.05
650.021	272.18
650.217	241.18
650.414	240.41
650.611	252.23
650.808	289.62
651.004	284.97
651.201	305.12
651.398	301.24
651.595	263.66
651.791	252.42
651.988	307.64
652.185	230.14
652.381	307.64
652.578	216.77
652.775	274.31
652.971	272.38
653.168	263.08
653.364	278.58
653.561	192.75
653.757	235.18
653.954	236.15
654.15	240.02
654.347	313.64
654.543	252.81
654.74	222.2
654.936	230.91
655.133	266.37
655.329	269.08
655.525	253.78
655.722	276.06
655.918	234.6
656.115	288.07
656.311	231.3
656.507	212.31
656.704	173.57
656.9	231.3
657.096	226.07
657.292	204.37
657.489	284.39
657.685	270.25
657.881	238.66
658.077	230.33
658.273	221.23
658.47	277.22
658.666	254.16
658.862	290.78
659.058	217.16
659.254	273.93
659.45	241.57
659.646	249.32
659.842	241.18
660.038	277.99
660.234	226.46
660.43	237.89
660.626	282.84
660.822	279.74
661.018	294.08
661.214	256.68
661.41	219.29
661.606	304.15
661.802	283.42
661.998	216
662.194	219.29
662.39	254.16
662.586	282.84
662.781	285.94
662.977	242.93
663.173	268.89
663.369	233.05
663.564	278.77
663.76	279.16
663.956	250.48
664.152	279.74
664.347	196.23
664.543	236.92
664.739	222
664.934	185.58
665.13	201.46
665.326	282.26
665.521	257.26
665.717	198.56
665.912	205.92
666.108	176.08
666.304	222.39
666.499	230.72
666.695	183.64
666.89	209.99
667.086	252.81
667.281	257.46
667.477	271.41
667.672	240.21
667.867	270.44
668.063	249.51
668.258	198.56
668.454	222.39
668.649	296.98
668.844	229.17
669.04	240.02
669.235	192.16
669.43	216.58
669.626	179.38
669.821	243.12
670.016	188.68
670.211	257.07
670.407	216.19
670.602	218.9
670.797	212.9
670.992	261.53
671.187	197.78
671.382	253.97
671.578	216.58
671.773	249.9
671.968	182.09
672.163	227.43
672.358	244.48
672.553	214.64
672.748	189.65
672.943	267.73
673.138	242.73
673.333	245.25
673.528	182.48
673.723	244.48
673.918	237.11
674.113	205.73
674.308	316.36
674.503	246.03
674.698	244.48
674.892	251.65
675.087	254.36
675.282	262.88
675.477	197.59
675.672	220.65
675.867	195.85
676.061	184.8
676.256	197.2
676.451	187.32
676.646	198.56
676.84	202.43
677.035	181.32
677.23	174.92
677.424	243.31
677.619	237.89
677.814	237.7
678.008	252.23
678.203	185.77
678.397	200.88
678.592	215.8
678.787	255.52
678.981	185
679.176	230.33
679.37	209.99
679.565	203.01
679.759	173.57
679.954	235.37
680.148	254.75
680.342	265.6
680.537	225.88
680.731	181.9
680.926	225.49
681.12	241.76
681.314	202.24
681.509	190.42
681.703	220.06
681.897	242.35
682.092	224.91
682.286	188.1
682.48	275.09
682.674	264.05
682.869	210.18
683.063	197.78
683.257	276.45
683.451	187.52
683.645	219.68
683.839	225.88
684.034	207.28
684.228	233.24
684.422	206.11
684.616	196.81
684.81	230.53
685.004	195.07
685.198	210.76
685.392	231.11
685.586	170.47
685.78	208.05
685.974	249.71
686.168	242.54
686.362	249.71
686.556	191
686.75	146.05
686.944	214.83
687.138	242.35
687.331	159.62
687.525	190.42
687.719	141.79
687.913	198.75
688.107	156.52
688.301	157.48
688.494	194.3
688.688	166.78
688.882	154.77
689.076	138.5
689.269	173.95
689.463	245.83
689.657	171.24
689.85	157.29
690.044	183.45
690.238	180.73
690.431	174.15
690.625	171.24
690.818	198.36
691.012	209.02
691.205	215.61
691.399	177.44
691.593	185.77
691.786	241.57
691.98	220.84
692.173	250.48
692.366	233.24
692.56	232.46
692.753	288.26
692.947	189.45
693.14	265.21
693.333	246.22
693.527	195.26
693.72	247
693.914	227.43
694.107	230.72
694.3	256.68
694.493	231.69
694.687	277.03
694.88	218.13
695.073	280.13
695.266	290.78
695.46	252.61
695.653	296.98
695.846	282.26
696.039	180.35
696.232	216.77
696.425	273.73
696.618	306.86
696.812	246.22
697.005	299.89
697.198	341.16
697.391	299.89
697.584	284.39
697.777	353.56
697.97	355.11
698.163	325.08
698.356	306.86
698.549	388.82
698.742	326.04
698.935	310.35
699.127	362.66
699.32	306.67
699.513	324.69
699.706	344.26
699.899	374.67
700.092	296.59
700.285	367.7
700.477	303.57
700.67	335.34
700.863	385.14
701.056	420.21
701.248	422.34
701.441	380.49
701.634	376.22
701.826	457.02
702.019	344.64
702.212	433.19
702.404	368.28
702.597	356.08
702.79	408.19
702.982	386.69
703.175	425.63
703.367	434.74
703.56	416.72
703.752	497.32
703.945	435.12
704.137	443.65
704.33	465.35
704.522	476.59
704.715	473.1
704.907	472.9
705.1	531.03
705.292	525.99
705.484	491.31
705.677	529.48
705.869	521.54
706.061	530.84
706.254	569.97
706.446	523.28
706.638	522.5
706.831	594
707.023	540.91
707.215	627.71
707.407	593.61
707.599	557.57
707.792	620.73
707.984	601.17
708.176	628.29
708.368	588.96
708.56	635.85
708.752	606.59
708.944	609.3
709.136	638.95
709.329	625
709.521	743.18
709.713	675.37
709.905	662
710.097	699.4
710.289	650.76
710.481	668.78
710.672	673.05
710.864	697.07
711.056	748.03
711.248	723.42
711.44	736.59
711.632	747.64
711.824	731.75
712.016	784.06
712.207	778.06
712.399	757.52
712.591	780.58
712.783	796.66
712.975	794.14
713.166	781.54
713.358	772.83
713.55	830.37
713.741	812.16
713.933	816.22
714.125	795.11
714.316	820.87
714.508	852.46
714.7	866.41
714.891	846.84
715.083	915.23
715.274	847.42
715.466	892.56
715.657	906.51
715.849	818.55
716.04	868.34
716.232	817.58
716.423	907.87
716.615	834.24
716.806	827.85
716.998	813.51
717.189	809.06
717.381	749.38
717.572	730.39
717.763	786.58
717.955	760.81
718.146	766.24
718.337	753.84
718.528	690.48
718.72	681.57
718.911	730.98
719.102	709.66
719.293	759.65
719.485	711.21
719.676	713.15
719.867	687
720.058	687.38
720.249	668.01
720.44	714.12
720.632	756.74
720.823	772.83
721.014	865.63
721.205	822.62
721.396	893.72
721.587	917.94
721.778	909.42
721.969	936.74
722.16	977.62
722.351	976.84
722.542	1050.08
722.733	1045.43
722.924	962.5
723.115	1039.81
723.305	1055.12
723.496	1038.07
723.687	973.55
723.878	984.78
724.069	1002.42
724.26	1005.13
724.45	968.32
724.641	902.25
724.832	1012.3
725.023	989.24
725.213	952.24
725.404	946.04
725.595	986.72
725.785	946.81
725.976	989.82
726.167	1000.67
726.357	978.2
726.548	1054.92
726.739	997.38
726.929	1060.73
727.12	1085.15
727.31	1074.88
727.501	1070.03
727.691	1054.15
727.882	1096.38
728.072	1115.95
728.263	1104.52
728.453	1131.06
728.644	1118.66
728.834	1161.68
729.024	1107.43
729.215	1135.13
729.405	1128.55
729.596	1227.74
729.786	1222.9
729.976	1186.67
730.167	1209.14
730.357	1180.08
730.547	1175.04
730.737	1222.32
730.928	1227.94
731.118	1273.86
731.308	1235.11
731.498	1210.69
731.688	1321.91
731.879	1296.72
732.069	1322.1
732.259	1355.42
732.449	1337.4
732.639	1382.94
732.829	1405.22
733.019	1436.8
733.209	1461.02
733.399	1459.66
733.589	1506.16
733.779	1528.25
733.969	1510.42
734.159	1542.39
734.349	1575.71
734.539	1606.52
734.729	1618.73
734.919	1640.43
735.109	1639.07
735.299	1582.3
735.488	1676.85
735.678	1632.09
735.868	1621.83
736.058	1674.14
736.248	1636.74
736.437	1613.11
736.627	1593.93
736.817	1693.12
737.007	1663.09
737.196	1694.48
737.386	1710.76
737.576	1635.97
737.765	1719.09
737.955	1673.17
738.144	1771.79
738.334	1737.88
738.524	1713.47
738.713	1714.82
738.903	1762.1
739.092	1783.41
739.282	1786.12
739.471	1767.14
739.661	1744.27
739.85	1786.51
740.04	1813.25
740.229	1834.17
740.419	1862.07
740.608	1868.08
740.797	1873.7
740.987	1923.88
741.176	1862.46
741.365	1855.29
741.555	1827.78
741.744	1892.68
741.933	1872.73
742.123	1862.46
742.312	1895.59
742.501	1934.34
742.69	1953.13
742.88	1873.7
743.069	1962.24
743.258	1894.82
743.447	1965.15
743.636	1985.68
743.825	1944.61
744.014	1954.68
744.204	1953.52
744.393	1919.03
744.582	2010.48
744.771	2057.18
744.96	1958.17
745.149	2032.76
745.338	2004.48
745.527	1997.11
745.716	1960.88
745.905	1963.21
746.094	2011.26
746.283	2017.26
746.471	1998.28
746.66	2075.19
746.849	2023.66
747.038	2062.21
747.227	1986.46
747.416	2022.69
747.604	2023.66
747.793	1993.63
747.982	2064.93
748.171	2036.06
748.359	2046.52
748.548	2012.42
748.737	2020.17
748.926	2039.74
749.114	1963.6
749.303	2022.3
749.491	2034.12
749.68	1991.3
749.869	2045.94
750.057	2018.43
750.246	1991.69
750.434	2038.58
750.623	1997.89
750.811	1992.66
751	2053.69
751.188	1994.98
751.377	2041.48
751.565	2010.29
751.754	1995.95
751.942	1978.51
752.131	2059.69
752.319	2000.41
752.507	1936.28
752.696	2014.55
752.884	2046.91
753.072	1977.74
753.261	1974.83
753.449	2031.99
753.637	1976.96
753.825	2019.59
754.014	2008.55
754.202	2017.26
754.39	2058.14
754.578	2044.97
754.766	1959.72
754.955	1941.7
755.143	2041.09
755.331	1945.58
755.519	1954.68
755.707	1993.43
755.895	1989.36
756.083	1961.85
756.271	1918.07
756.459	1960.3
756.647	1981.42
756.835	1997.11
757.023	1927.17
757.211	1971.73
757.399	1983.55
757.587	1961.08
757.775	1911.67
757.963	1920.78
758.151	1949.45
758.339	1860.91
758.526	1914.97
758.714	1923.68
758.902	1863.04
759.09	1825.45
759.278	1694.29
759.465	1554.6
759.653	1327.91
759.841	1231.23
760.028	1046.4
760.216	907.87
760.404	885.01
760.591	675.18
760.779	579.66
760.967	511.27
761.154	413.42
761.342	466.7
761.529	434.93
761.717	494.02
761.905	446.94
762.092	495.38
762.28	451.98
762.467	443.84
762.655	407.03
762.842	423.89
763.029	461.86
763.217	451.21
763.404	447.72
763.592	477.17
763.779	419.43
763.966	465.54
764.154	497.12
764.341	532.58
764.528	534.32
764.716	568.62
764.903	602.72
765.09	618.02
765.277	657.16
765.465	775.73
765.652	776.7
765.839	847.22
766.026	925.11
766.213	958.44
766.4	1003.97
766.588	1122.35
766.775	1116.15
766.962	1202.36
767.149	1220.58
767.336	1338.57
767.523	1296.91
767.71	1372.86
767.897	1431.57
768.084	1484.65
768.271	1509.26
768.458	1537.35
768.645	1574.75
768.832	1562.73
769.019	1576.49
769.206	1601.68
769.392	1656.89
769.579	1736.72
769.766	1683.63
769.953	1653.41
770.14	1704.56
770.327	1685.76
770.513	1731.29
770.7	1802.79
770.887	1721.41
771.073	1759.39
771.26	1749.51
771.447	1727.22
771.634	1700.1
771.82	1779.15
772.007	1707.85
772.193	1748.34
772.38	1789.22
772.567	1728.77
772.753	1736.72
772.94	1817.51
773.126	1784.96
773.313	1740.59
773.499	1754.35
773.686	1759.58
773.872	1743.69
774.059	1764.42
774.245	1703.59
774.432	1705.33
774.618	1699.32
774.804	1725.09
774.991	1722.19
775.177	1766.17
775.363	1741.37
775.55	1760.94
775.736	1675.3
775.922	1683.63
776.109	1686.54
776.295	1690.99
776.481	1750.47
776.667	1748.92
776.853	1710.56
777.04	1717.15
777.226	1679.17
777.412	1778.76
777.598	1681.89
777.784	1691.77
777.97	1709.4
778.156	1685.37
778.342	1690.22
778.528	1655.54
778.715	1614.85
778.901	1614.66
779.087	1667.36
779.272	1662.71
779.458	1648.18
779.644	1672.59
779.83	1644.11
780.016	1753.96
780.202	1666
780.388	1647.59
780.574	1602.26
780.76	1623.38
780.946	1659.22
781.131	1651.28
781.317	1595.09
781.503	1601.68
781.689	1614.46
781.874	1684.41
782.06	1635.78
782.246	1611.75
782.432	1587.34
782.617	1606.71
782.803	1670.65
782.989	1494.73
783.174	1582.88
783.36	1527.86
783.545	1601.09
783.731	1621.63
783.916	1550.14
784.102	1608.65
784.288	1542.39
784.473	1563.7
784.659	1552.27
784.844	1628.03
785.029	1524.18
785.215	1535.61
785.4	1514.1
785.586	1589.86
785.771	1498.6
785.956	1552.27
786.142	1503.64
786.327	1490.08
786.512	1501.9
786.698	1526.89
786.883	1450.94
787.068	1496.67
787.254	1544.91
787.439	1498.02
787.624	1511.58
787.809	1466.44
787.994	1469.35
788.18	1518.17
788.365	1412.39
788.55	1435.83
788.735	1465.47
788.92	1459.08
789.105	1452.49
789.29	1492.02
789.475	1427.3
789.66	1429.82
789.845	1396.5
790.03	1366.27
790.215	1439.12
790.4	1438.54
790.585	1490.47
790.77	1437.38
790.955	1356
791.14	1419.75
791.325	1443.77
791.51	1324.81
791.695	1396.89
791.879	1367.44
792.064	1377.7
792.249	1450.55
792.434	1374.02
792.618	1381.39
792.803	1426.92
792.988	1392.24
793.173	1392.43
793.357	1435.63
793.542	1357.55
793.727	1399.6
793.911	1435.25
794.096	1365.11
794.281	1380.42
794.465	1470.9
794.65	1402.31
794.834	1401.92
795.019	1461.79
795.203	1453.46
795.388	1479.81
795.572	1446.87
795.757	1406.38
795.941	1432.34
796.126	1427.5
796.31	1384.87
796.494	1421.49
796.679	1403.47
796.863	1340.12
797.048	1445.52
797.232	1412.39
797.416	1408.9
797.601	1371.7
797.785	1471.28
797.969	1451.33
798.153	1382.55
798.338	1425.17
798.522	1404.05
798.706	1426.92
798.89	1452.3
799.074	1525.53
799.258	1499.77
799.443	1440.48
799.627	1441.83
799.811	1463.15
799.995	1425.17
800.179	1402.12
800.363	1416.65
800.547	1425.37
800.731	1452.1
800.915	1377.12
801.099	1404.44
801.283	1410.64
801.467	1439.9
801.651	1408.9
801.835	1449
802.019	1415.48
802.202	1435.44
802.386	1373.05
802.57	1349.8
802.754	1355.42
802.938	1362.59
803.121	1402.7
803.305	1452.49
803.489	1395.34
803.673	1372.67
803.856	1452.3
804.04	1409.29
804.224	1388.75
804.407	1399.79
804.591	1376.74
804.775	1395.92
804.958	1389.33
805.142	1513.33
805.326	1387.78
805.509	1436.22
805.693	1451.13
805.876	1435.83
806.06	1413.35
806.243	1430.21
806.427	1497.44
806.61	1467.8
806.794	1411.61
806.977	1446.29
807.16	1440.67
807.344	1417.03
807.527	1427.11
807.71	1417.42
807.894	1436.8
808.077	1427.3
808.26	1417.42
808.444	1400.37
808.627	1441.25
808.81	1357.36
808.993	1357.55
809.177	1359.3
809.36	1359.1
809.543	1383.9
809.726	1339.15
809.909	1330.04
810.092	1327.72
810.276	1335.47
810.459	1325.01
810.642	1280.64
810.825	1318.03
811.008	1309.89
811.191	1237.43
811.374	1264.17
811.557	1235.69
811.74	1304.08
811.923	1206.43
812.106	1253.51
812.289	1192.48
812.472	1208.37
812.654	1271.92
812.837	1180.47
813.02	1177.56
813.203	1170.98
813.386	1103.94
813.569	1096.77
813.751	1075.46
813.934	1096
814.117	1076.62
814.3	1033.03
814.482	1026.63
814.665	988.85
814.848	1018.88
815.03	947.97
815.213	980.72
815.396	949.91
815.578	921.43
815.761	908.45
815.943	984.01
816.126	906.51
816.309	864.66
816.491	887.14
816.674	805.57
816.856	829.01
817.039	819.13
817.221	916.78
817.403	866.02
817.586	879.97
817.768	888.11
817.951	832.69
818.133	813.9
818.315	839.28
818.498	884.42
818.68	938.09
818.862	909.8
819.045	907.67
819.227	916.97
819.409	883.26
819.591	891.2
819.774	860.59
819.956	834.82
820.138	935.77
820.32	893.34
820.502	939.45
820.684	991.57
820.866	978.97
821.048	1003.97
821.231	988.66
821.413	996.22
821.595	966.96
821.777	983.62
821.959	947.97
822.141	1036.9
822.323	894.5
822.505	906.7
822.686	880.36
822.868	869.31
823.05	763.53
823.232	781.93
823.414	733.88
823.596	795.11
823.778	732.72
823.96	776.7
824.141	804.6
824.323	807.89
824.505	829.79
824.687	870.86
824.868	883.65
825.05	963.67
825.232	977.62
825.413	1024.12
825.595	977.23
825.777	939.06
825.958	976.84
826.14	967.15
826.321	962.31
826.503	928.02
826.685	977.81
826.866	981.3
827.048	996.22
827.229	939.84
827.411	928.79
827.592	895.85
827.773	878.61
827.955	871.06
828.136	901.28
828.318	844.51
828.499	900.7
828.68	834.82
828.862	860.21
829.043	903.22
829.224	843.16
829.406	821.46
829.587	848.39
829.768	860.21
829.949	850.71
830.131	873.19
830.312	911.94
830.493	868.92
830.674	861.37
830.855	835.99
831.036	843.74
831.218	919.3
831.399	917.55
831.58	864.66
831.761	888.3
831.942	869.7
832.123	850.71
832.304	812.74
832.485	836.18
832.666	881.52
832.847	866.02
833.028	860.59
833.209	866.41
833.389	876.67
833.57	807.89
833.751	839.09
833.932	894.3
834.113	838.7
834.294	840.83
834.475	884.42
834.655	898.18
834.836	909.61
835.017	904.19
835.198	838.89
835.378	903.99
835.559	891.01
835.74	887.52
835.92	865.63
836.101	855.36
836.281	872.02
836.462	869.51
836.643	924.53
836.823	945.45
837.004	892.17
837.184	939.45
837.365	942.74
837.545	917.75
837.726	859.43
837.906	947.78
838.087	911.35
838.267	893.53
838.448	881.52
838.628	897.4
838.808	898.18
838.989	919.69
839.169	860.4
839.349	925.3
839.53	937.12
839.71	928.79
839.89	887.52
840.07	954.56
840.251	923.56
840.431	945.26
840.611	871.06
840.791	895.85
840.971	910.58
841.151	878.03
841.332	879.77
841.512	930.15
841.692	834.24
841.872	901.86
842.052	887.72
842.232	929.76
842.412	848.77
842.592	875.9
842.772	882.49
842.952	886.56
843.132	859.04
843.312	875.9
843.492	858.85
843.672	901.67
843.851	881.52
844.031	878.61
844.211	869.51
844.391	868.92
844.571	912.52
844.751	888.49
844.93	907.87
845.11	866.21
845.29	903.22
845.47	888.11
845.649	875.12
845.829	886.36
846.009	879.19
846.188	913.68
846.368	876.67
846.547	892.75
846.727	875.12
846.907	836.57
847.086	878.42
847.266	915.42
847.445	898.57
847.625	894.11
847.804	829.21
847.984	835.6
848.163	798.79
848.343	847.81
848.522	863.69
848.701	882.49
848.881	795.11
849.06	841.61
849.239	853.81
849.419	861.95
849.598	842.96
849.777	815.26
849.957	837.15
850.136	774.96
850.315	765.85
850.494	777.09
850.674	764.88
850.853	801.69
851.032	783.29
851.211	865.05
851.39	802.66
851.569	745.12
851.748	781.16
851.927	807.51
852.107	806.54
852.286	767.4
852.465	770.69
852.644	833.27
852.823	797.24
853.002	791.04
853.181	789.49
853.359	833.08
853.538	748.61
853.717	823.39
853.896	752.29
854.075	711.8
854.254	727.29
854.433	653.48
854.611	736.79
854.79	668.78
854.969	696.88
855.148	727.68
855.327	700.95
855.505	741.24
855.684	679.63
855.863	733.11
856.041	667.23
856.22	694.36
856.399	683.7
856.577	772.05
856.756	733.69
856.934	867.57
857.113	832.5
857.291	764.49
857.47	745.12
857.648	732.72
857.827	757.13
858.005	781.74
858.184	729.81
858.362	834.05
858.541	766.82
858.719	762.75
858.898	738.73
859.076	750.93
859.254	799.95
859.433	744.73
859.611	714.7
859.789	736.79
859.967	786.78
860.146	832.5
860.324	725.74
860.502	736.21
860.68	712.57
860.859	719.54
861.037	719.74
861.215	746.67
861.393	722.84
861.571	719.16
861.749	712.38
861.927	738.14
862.105	747.06
862.283	740.08
862.461	711.8
862.639	683.31
862.817	709.28
862.995	720.9
863.173	691.06
863.351	724.19
863.529	725.36
863.707	753.06
863.885	747.44
864.063	639.14
864.241	674.6
864.418	761.39
864.596	661.42
864.774	676.73
864.952	708.31
865.129	706.18
865.307	702.88
865.485	643.6
865.663	706.37
865.84	649.02
866.018	693.39
866.196	568.03
866.373	634.49
866.551	605.23
866.728	555.63
866.906	574.62
867.084	593.42
867.261	657.16
867.439	621.12
867.616	648.44
867.794	614.73
867.971	631.2
868.149	650.57
868.326	690.68
868.503	676.92
868.681	635.07
868.858	626.35
869.035	601.75
869.213	656
869.39	627.13
869.567	703.27
869.745	611.24
869.922	637.4
870.099	662
870.276	674.6
870.454	647.08
870.631	656.96
870.808	637.01
870.985	663.36
871.162	699.98
871.339	651.93
871.517	597.68
871.694	621.51
871.871	630.23
872.048	647.86
872.225	638.36
872.402	647.28
872.579	607.75
872.756	656.58
872.933	598.45
873.11	621.7
873.287	632.94
873.463	638.36
873.64	582.37
873.817	639.33
873.994	614.15
874.171	596.32
874.348	628.29
874.524	563.97
874.701	593.8
874.878	561.64
875.055	605.04
875.231	576.95
875.408	618.8
875.585	550.98
875.762	600
875.938	584.7
876.115	564.55
876.291	548.47
876.468	584.7
876.645	548.47
876.821	588.38
876.998	581.02
877.174	600
877.351	575.98
877.527	553.7
877.704	603.68
877.88	589.35
878.057	558.15
878.233	588.96
878.409	573.46
878.586	612.6
878.762	588.38
878.938	558.54
879.115	524.64
879.291	575.78
879.467	514.95
879.644	525.02
879.82	572.1
879.996	517.85
880.172	524.44
880.349	546.92
880.525	604.07
880.701	536.84
880.877	525.41
881.053	566.68
881.229	567.84
881.405	587.02
881.581	526.19
881.757	531.61
881.933	551.76
882.109	574.82
882.285	541.49
882.461	496.74
882.637	531.61
882.813	509.14
882.989	524.44
883.165	537.81
883.341	530.06
883.517	570.55
883.693	568.81
883.869	545.56
884.044	535.49
884.22	543.43
884.396	575.01
884.572	553.12
884.747	595.55
884.923	558.73
885.099	570.55
885.275	548.08
885.45	533.16
885.626	531.61
885.801	527.15
885.977	537.81
886.153	455.66
886.328	539.55
886.504	493.64
886.679	561.83
886.855	516.5
887.03	550.79
887.206	560.87
887.381	556.99
887.557	555.05
887.732	540.33
887.908	574.23
888.083	560.67
888.258	532.19
888.434	523.47
888.609	544.01
888.784	550.02
888.96	509.72
889.135	517.27
889.31	488.79
889.485	542.85
889.661	538
889.836	560.48
890.011	575.59
890.186	512.43
890.361	507.39
890.537	551.57
890.712	502.55
890.887	534.32
891.062	531.61
891.237	578.88
891.412	482.2
891.587	541.49
891.762	560.67
891.937	558.35
892.112	497.7
892.287	532.58
892.462	500.42
892.637	481.04
892.812	484.34
892.987	500.42
893.161	465.93
893.336	475.81
893.511	480.85
893.686	472.9
893.861	448.69
894.035	490.34
894.21	510.49
894.385	443.84
894.56	489.76
894.734	417.3
894.909	435.9
895.084	417.49
895.258	418.07
895.433	471.16
895.608	424.86
895.782	373.9
895.957	426.02
896.131	413.81
896.306	378.94
896.48	376.03
896.655	399.86
896.829	342.71
897.004	352.78
897.178	358.98
897.353	325.08
897.527	389.21
897.701	368.28
897.876	289.81
898.05	396.57
898.224	354.14
898.399	391.72
898.573	343.68
898.747	268.89
898.921	365.76
899.096	253.97
899.27	304.34
899.444	268.7
899.618	305.12
899.792	300.28
899.967	277.8
900.141	348.91
900.315	269.86
900.489	292.33
900.663	309.19
900.837	322.17
901.011	267.34
901.185	346
901.359	293.11
901.533	293.11
901.707	314.03
901.881	327.59
902.055	287.49
902.229	305.89
902.403	335.15
902.576	299.69
902.75	312.09
902.924	387.85
903.098	332.83
903.272	355.3
903.446	391.53
903.619	357.24
903.793	384.36
903.967	383.78
904.14	399.47
904.314	388.62
904.488	387.46
904.661	372.54
904.835	380.49
905.009	421.76
905.182	457.4
905.356	440.94
905.529	374.29
905.703	350.46
905.876	341.74
906.05	325.66
906.223	324.69
906.397	299.89
906.57	284.97
906.744	272.18
906.917	307.25
907.09	317.71
907.264	288.26
907.437	283.81
907.61	278.38
907.784	276.06
907.957	298.92
908.13	252.42
908.304	283.23
908.477	253.78
908.65	253.97
908.823	234.79
908.996	314.81
909.17	276.06
909.343	263.85
909.516	303.96
909.689	288.84
909.862	251.45
910.035	264.24
910.208	240.8
910.381	264.43
910.554	336.31
910.727	268.7
910.9	262.69
911.073	251.45
911.246	293.69
911.419	291.36
911.592	283.61
911.765	249.32
911.938	255.52
912.11	240.6
912.283	277.8
912.456	308.99
912.629	258.62
912.802	249.51
912.974	210.96
913.147	218.32
913.32	158.26
913.493	213.28
913.665	247
913.838	253.78
914.01	237.7
914.183	241.76
914.356	209.41
914.528	245.83
914.701	292.91
914.873	276.83
915.046	228.59
915.218	228.78
915.391	148.57
915.563	204.56
915.736	248.35
915.908	234.6
916.081	231.3
916.253	190.42
916.425	238.28
916.598	238.08
916.77	234.6
916.942	212.12
917.115	140.63
917.287	200.5
917.459	213.28
917.632	195.26
917.804	128.42
917.976	220.45
918.148	211.15
918.32	218.32
918.493	234.98
918.665	265.6
918.837	215.8
919.009	281.29
919.181	256.68
919.353	231.11
919.525	232.46
919.697	247
919.869	231.11
920.041	273.93
920.213	330.11
920.385	257.26
920.557	217.55
920.729	284
920.901	255.33
921.073	240.41
921.244	234.21
921.416	252.42
921.588	221.03
921.76	227.43
921.932	310.93
922.103	225.3
922.275	236.73
922.447	261.91
922.619	193.33
922.79	249.13
922.962	218.71
923.134	244.86
923.305	204.37
923.477	174.53
923.648	192.75
923.82	219.1
923.991	164.27
924.163	167.37
924.335	191
924.506	189.26
924.677	242.73
924.849	190.03
925.02	182.48
925.192	211.15
925.363	210.18
925.535	198.75
925.706	198.95
925.877	269.47
926.049	178.8
926.22	208.83
926.391	220.06
926.562	238.08
926.734	219.68
926.905	240.8
927.076	148.77
927.247	186.55
927.419	143.34
927.59	145.47
927.761	182.09
927.932	166.59
928.103	185.97
928.274	146.83
928.445	111.18
928.616	162.72
928.787	155.35
928.958	174.73
929.129	140.82
929.3	128.81
929.471	94.52
929.642	81.54
929.813	65.45
929.984	163.88
930.155	72.43
930.326	104.01
930.496	92.39
930.667	25.54
930.838	94.9
931.009	32.52
931.18	97.62
931.35	100.33
931.521	92.58
931.692	43.17
931.863	26.32
932.033	92.77
932.204	66.04
932.374	67.59
932.545	21.09
932.716	90.84
932.886	72.04
933.057	29.03
933.227	31.16
933.398	119.9
933.568	28.64
933.739	2.49
933.909	27.48
934.08	61.19
934.25	-33.36
934.421	11.79
934.591	43.37
934.761	-6.23
934.932	-33.94
935.102	49.37
935.272	-12.24
935.443	24.77
935.613	23.02
935.783	23.99
935.953	-32.78
936.123	146.83
936.294	-19.21
936.464	4.81
936.634	42.59
936.804	-22.12
936.974	-28.9
937.144	38.33
937.314	24.19
937.484	-5.26
937.655	-14.37
937.825	32.71
937.995	-4.29
938.165	30.19
938.334	0.16
938.504	9.46
938.674	-2.16
938.844	17.02
939.014	48.02
939.184	22.05
939.354	93.94
939.524	53.44
939.694	24.38
939.863	25.93
940.033	80.18
940.203	66.42
940.373	53.25
940.542	67
940.712	46.27
940.882	74.17
941.051	65.45
941.221	57.12
941.391	69.91
941.56	24.19
941.73	19.73
941.899	123.77
942.069	14.89
942.238	44.14
942.408	34.07
942.577	43.37
942.747	38.33
942.916	-11.66
943.086	6.17
943.255	91.61
943.425	57.51
943.594	34.45
943.763	-8.36
943.933	-6.62
944.102	-26.77
944.271	23.02
944.441	45.89
944.61	12.95
944.779	30
944.948	117.18
945.117	-9.91
945.287	19.73
945.456	-21.34
945.625	9.85
945.794	20.31
945.963	19.54
946.132	47.24
946.301	10.04
946.47	63.32
946.639	10.24
946.808	-16.5
946.977	46.85
947.146	85.99
947.315	-4.49
947.484	70.3
947.653	17.4
947.822	8.69
947.991	6.36
948.16	86.77
948.329	66.23
948.498	35.04
948.666	28.06
948.835	40.46
949.004	-11.66
949.173	-2.74
949.341	34.65
949.51	31.74
949.679	77.08
949.847	52.28
950.016	90.25
950.185	62.16
950.353	27.09
950.522	-2.74
950.69	56.15
950.859	16.24
951.028	54.8
951.196	37.55
951.365	14.5
951.533	24.57
951.701	61.39
951.87	39.3
952.038	-0.42
952.207	33.1
952.375	85.6
952.543	-0.03
952.712	20.89
952.88	2.29
953.048	54.41
953.217	47.44
953.385	44.34
953.553	64.68
953.721	-4.1
953.89	15.85
954.058	-1
954.226	3.26
954.394	23.99
954.562	16.05
954.73	30.58
954.898	16.44
955.067	52.28
955.235	24.57
955.403	56.15
955.571	93.16
955.739	53.83
955.907	0.55
956.075	12.76
956.243	0.16
956.41	48.79
956.578	-20.38
956.746	4.23
956.914	13.92
957.082	56.93
957.25	41.43
957.418	7.91
957.585	16.24
957.753	73.98
957.921	8.69
958.089	41.24
958.256	57.51
958.424	63.52
958.592	40.65
958.759	3.46
958.927	56.93
959.095	-10.11
959.262	30.19
959.43	49.18
959.597	-11.27
959.765	11.59
959.932	-16.31
960.1	45.69
960.267	18.18
960.435	34.84
960.602	43.17
960.77	33.68
960.937	-29.68
961.104	24.38
961.272	-25.03
961.439	-1.39
961.606	32.32
961.774	58.09
961.941	-0.42
962.108	39.88
962.275	56.54
962.443	84.05
962.61	37.75
962.777	78.82
962.944	54.8
963.111	37.36
963.278	63.71
963.446	64.87
963.613	36.2
963.78	64.1
963.947	59.45
964.114	42.01
964.281	77.47
964.448	50.15
964.615	41.82
964.782	61.19
964.949	63.9
965.116	21.86
965.282	84.83
965.449	38.33
965.616	9.27
965.783	58.09
965.95	44.72
966.117	14.89
966.283	61.19
966.45	73.98
966.617	8.88
966.784	49.37
966.95	103.23
967.117	88.12
967.284	19.54
967.45	38.14
967.617	71.85
967.784	68.75
967.95	108.08
968.117	24.57
968.283	83.28
968.45	123.77
968.616	51.89
968.783	84.83
968.949	47.82
969.116	73.79
969.282	47.63
969.449	59.84
969.615	58.09
969.781	2.29
969.948	40.07
970.114	24.38
970.28	115.83
970.447	10.04
970.613	94.52
970.779	51.12
970.945	52.86
971.112	55.57
971.278	34.65
971.444	45.5
971.61	62.74
971.776	67.2
971.942	71.27
972.108	90.25
972.275	38.72
972.441	89.29
972.607	114.86
972.773	34.45
972.939	51.7
973.105	38.52
973.271	10.43
973.437	51.7
973.602	10.62
973.768	78.05
973.934	51.31
974.1	82.5
974.266	7.14
974.432	52.09
974.598	46.47
974.763	60.8
974.929	37.55
975.095	96.26
975.261	51.5
975.426	8.3
975.592	38.33
975.758	119.9
975.923	16.24
976.089	13.14
976.255	54.6
976.42	36.97
976.586	67.59
976.751	69.91
976.917	137.33
977.082	64.49
977.248	2.49
977.413	15.47
977.579	26.12
977.744	61.58
977.91	0.55
978.075	15.66
978.24	44.72
978.406	52.28
978.571	42.59
978.736	37.17
978.902	66.42
979.067	34.84
979.232	-7.39
979.397	36.78
979.563	101.88
979.728	30
979.893	51.89
980.058	37.17
980.223	89.87
980.388	40.27
980.554	62.16
980.719	18.37
980.884	34.65
981.049	77.85
981.214	26.9
981.379	51.12
981.544	35.23
981.709	38.91
981.874	51.12
982.039	32.13
982.204	70.88
982.368	61.97
982.533	9.66
982.698	63.32
982.863	52.09
983.028	51.12
983.193	64.87
983.357	52.67
983.522	38.52
983.687	38.91
983.852	14.31
984.016	36.97
984.181	34.07
984.346	37.17
984.51	75.14
984.675	23.22
984.839	57.9
985.004	58.09
985.168	98.97
985.333	45.89
985.498	40.07
985.662	55.57
985.827	65.84
985.991	63.71
986.155	40.07
986.32	87.93
986.484	90.64
986.649	55.57
986.813	-10.3
986.977	57.32
987.142	52.67
987.306	19.54
987.47	21.47
987.634	17.6
987.799	57.32
987.963	48.99
988.127	54.99
988.291	124.93
988.455	19.34
988.62	38.52
988.784	72.04
988.948	76.11
989.112	28.25
989.276	57.12
989.44	32.13
989.604	35.81
989.768	34.65
989.932	113.7
990.096	32.13
990.26	7.91
990.424	-5.46
990.588	20.7
990.752	105.75
990.915	66.42
991.079	33.68
991.243	8.11
991.407	75.92
991.571	55.57
991.734	68.55
991.898	63.13
992.062	121.25
992.226	46.47
992.389	1.52
992.553	16.24
992.717	30.58
992.88	44.53
993.044	74.37
993.207	43.37
993.371	76.11
993.535	30.19
993.698	56.54
993.862	56.74
994.025	80.57
994.189	26.7
994.352	41.82
994.515	30.58
994.679	80.95
994.842	36.97
995.006	76.69
995.169	30.97
995.332	29.61
995.496	42.79
995.659	-28.32
995.822	40.46
995.985	51.31
996.149	64.87
996.312	27.29
996.475	75.34
996.638	18.37
996.801	102.07
996.964	113.89
997.128	44.34
997.291	41.24
997.454	27.29
997.617	-30.45
997.78	66.42
997.943	35.62
998.106	97.04
998.269	16.05
998.432	34.07
998.595	39.3
998.758	-19.21
998.92	6.36
999.083	-10.88
999.246	11.01
999.409	12.17
999.572	-29.29
999.735	30.19
999.897	57.51
1000.06	17.21
1000.223	27.29
1000.386	62.16
1000.548	51.5
1000.711	45.5
1000.874	34.26
1001.036	12.37
1001.199	61
1001.361	6.75
1001.524	23.22
1001.687	59.45
1001.849	5.59
1002.012	29.22
1002.174	38.52
1002.337	53.25
1002.499	22.05
1002.661	39.88
1002.824	-13.79
1002.986	25.35
1003.149	37.17
1003.311	-5.84
1003.473	98.59
1003.636	15.27
1003.798	47.24
1003.96	55.19
1004.123	35.62
1004.285	17.21
1004.447	-6.81
1004.609	52.47
1004.771	96.26
1004.933	-5.26
1005.096	-18.44
1005.258	-14.18
1005.42	9.85
1005.582	61.58
1005.744	34.26
1005.906	-21.15
1006.068	26.7
1006.23	7.33
1006.392	-35.1
1006.554	-6.62
1006.716	42.79
1006.878	54.22
1007.04	-13.4
1007.202	17.79
1007.363	15.66
1007.525	45.11
1007.687	41.82
1007.849	67.39
1008.011	-25.8
1008.172	-13.59
1008.334	-4.1
1008.496	37.75
1008.658	-16.5
1008.819	14.11
1008.981	-4.1
1009.143	15.85
1009.304	28.84
1009.466	23.41
1009.627	67.97
1009.789	111.57
1009.95	31.94
1010.112	-10.3
1010.273	31.35
1010.435	-7.39
1010.596	14.69
1010.758	16.24
1010.919	-8.56
1011.081	-18.05
1011.242	12.56
1011.403	7.72
1011.565	32.32
1011.726	22.64
1011.887	2.68
1012.049	27.67
1012.21	34.45
1012.371	38.91
1012.532	-62.23
1012.693	23.99
1012.855	32.32
1013.016	39.69
1013.177	68.17
1013.338	20.12
1013.499	61
1013.66	25.74
1013.821	50.54
1013.982	30.19
1014.143	26.32
1014.304	-1.39
1014.465	34.26
1014.626	44.92
1014.787	12.37
1014.948	83.09
1015.109	-44.79
1015.27	40.85
1015.431	-4.1
1015.592	-19.21
1015.752	63.9
1015.913	28.25
1016.074	39.69
1016.235	19.54
1016.395	-2.55
1016.556	27.67
1016.717	-0.61
1016.877	72.04
1017.038	-2.16
1017.199	23.22
1017.359	48.79
1017.52	26.7
1017.681	2.68
1017.841	8.3
1018.002	-15.53
1018.162	3.65
1018.323	64.68
1018.483	0.94
1018.644	34.45
1018.804	-27.16
1018.964	-9.53
1019.125	5.97
1019.285	11.59
1019.446	0.74
1019.606	-19.99
1019.766	-31.03
1019.926	15.47
1020.087	14.89
1020.247	-4.1
1020.407	47.63
1020.567	77.27
1020.728	13.14
1020.888	-51.38
1021.048	-0.03
1021.208	-11.46
1021.368	15.85
1021.528	45.89
1021.688	19.34
1021.848	42.98
1022.008	18.18
1022.168	22.44
1022.328	12.56
1022.488	18.76
1022.648	13.53
1022.808	14.89
1022.968	5.01
1023.128	-9.14
1023.288	-8.75
1023.448	20.7
1023.608	20.7
1023.767	26.7
1023.927	-25.03
1024.087	-13.79
1024.247	-30.64
1024.406	1.52
1024.566	-16.69
1024.726	5.39
1024.885	24.38
1025.045	53.44
1025.205	6.94
1025.364	24.19
1025.524	16.63
1025.683	-2.55
1025.843	7.72
1026.003	25.54
1026.162	52.09
1026.321	30.77
1026.481	18.95
1026.64	-7.39
1026.8	12.17
1026.959	34.45
1027.119	12.95
1027.278	-13.21
1027.437	-3.71
1027.597	2.49
1027.756	16.44
1027.915	25.93
1028.074	36.78
1028.234	-14.56
1028.393	11.01
1028.552	-12.63
1028.711	-68.43
1028.87	40.65
1029.03	-24.25
1029.189	15.85
1029.348	-36.84
1029.507	5.97
1029.666	-13.01
1029.825	-5.07
1029.984	-29.29
1030.143	19.73
1030.302	-17.28
1030.461	-45.95
1030.62	4.62
1030.779	23.99
1030.938	-7.78
1031.097	-32.78
1031.255	49.95
1031.414	27.09
1031.573	38.33
1031.732	-54.09
1031.891	22.83
1032.049	29.42
1032.208	19.15
1032.367	-6.62
1032.525	-13.4
1032.684	-2.74
1032.843	-1.39
1033.001	-59.51
1033.16	125.9
1033.319	43.56
1033.477	15.27
1033.636	-13.59
1033.794	-19.79
1033.953	22.25
1034.111	27.29
1034.27	8.49
1034.428	6.94
1034.587	-18.24
1034.745	19.54
1034.903	24.96
1035.062	21.28
1035.22	-35.68
1035.378	48.6
1035.537	-39.75
1035.695	39.69
1035.853	5.59
1036.011	34.07
1036.17	16.63
1036.328	-28.32
1036.486	-0.23
1036.644	7.91
1036.802	-70.75
1036.96	-36.65
1037.119	-3.71
1037.277	-18.24
1037.435	-44.4
1037.593	-52.34
1037.751	-1.78
1037.909	28.25
1038.067	28.25
