Data from oakcork_FLMT105791__239__17-33-10-055.txt Node

Date: Mon Mar 20 17:33:10 GMT 2023
User: antho
Spectrometer: FLMT10579
Trigger mode: 0
Integration Time (sec): 1.000000E-1
Scans to average: 10
Electric dark correction enabled: true
Nonlinearity correction enabled: false
Boxcar width: 0
XAxis mode: Wavelengths
Number of Pixels in Spectrum: 3648
>>>>>Begin Spectral Data<<<<<
345.248	-146.84
345.464	-146.84
345.681	-146.84
345.898	-164.67
346.114	-145.68
346.331	-6.96
346.548	15.32
346.764	-10.25
346.981	14.16
347.197	-17.42
347.414	8.35
347.631	-14.71
347.847	48.26
348.064	-3.47
348.28	20.94
348.497	-36.99
348.713	-17.23
348.93	36.25
349.146	22.1
349.363	-0.18
349.579	8.54
349.796	-9.09
350.012	9.7
350.229	14.93
350.445	-6.18
350.661	-0.37
350.878	-3.28
351.094	29.47
351.311	12.61
351.527	22.68
351.743	-11.8
351.96	48.65
352.176	25.59
352.392	34.7
352.609	26.56
352.825	-14.13
353.041	14.74
353.257	5.05
353.474	24.62
353.69	6.8
353.906	-7.93
354.122	-1.15
354.339	48.65
354.555	33.92
354.771	-0.18
354.987	82.36
355.203	50.97
355.42	12.03
355.636	-7.35
355.852	-11.61
356.068	23.85
356.284	-12.38
356.5	71.9
356.716	27.14
356.932	19.58
357.148	27.14
357.364	-14.71
357.58	33.92
357.796	66.08
358.012	29.66
358.228	26.37
358.444	-30.01
358.66	49.03
358.876	35.47
359.092	-4.25
359.308	20.94
359.524	0.21
359.74	19.39
359.956	5.83
360.172	6.02
360.388	40.12
360.604	-14.51
360.819	103.67
361.035	3.5
361.251	44.77
361.467	3.31
361.683	46.71
361.898	26.95
362.114	45.35
362.33	3.5
362.546	73.06
362.762	25.4
362.977	0.98
363.193	18.62
363.409	55.43
363.624	-8.31
363.84	-4.05
364.056	7.18
364.271	40.32
364.487	29.47
364.703	5.44
364.918	-10.83
365.134	12.22
365.35	19.58
365.565	125.56
365.781	46.32
365.996	56.98
366.212	72.09
366.427	34.31
366.643	16.68
366.858	18.42
367.074	-5.22
367.289	61.24
367.505	129.25
367.72	-18.78
367.936	23.85
368.151	61.05
368.367	51.17
368.582	28.5
368.798	19.97
369.013	70.73
369.228	27.72
369.444	44.38
369.659	81.39
369.874	50.2
370.09	61.43
370.305	-14.32
370.52	6.22
370.736	76.93
370.951	29.85
371.166	87.98
371.381	84.1
371.597	69.96
371.812	-17.03
372.027	-0.37
372.242	37.99
372.458	78.29
372.673	16.1
372.888	31.02
373.103	42.45
373.318	100.38
373.533	43.8
373.749	53.3
373.964	-17.42
374.179	85.65
374.394	-6.77
374.609	64.73
374.824	5.44
375.039	87.59
375.254	0.21
375.469	84.1
375.684	42.25
375.899	65.12
376.114	43.61
376.329	28.11
376.544	70.15
376.759	60.85
376.974	22.3
377.189	20.55
377.404	30.82
377.619	70.54
377.834	-4.83
378.049	19.2
378.264	3.89
378.478	55.82
378.693	41.09
378.908	46.9
379.123	41.87
379.338	90.3
379.553	72.09
379.767	48.65
379.982	64.92
380.197	57.37
380.412	23.27
380.626	57.95
380.841	125.76
381.056	33.15
381.271	94.56
381.485	59.88
381.7	24.04
381.915	74.42
382.129	26.95
382.344	69.18
382.559	42.06
382.773	64.34
382.988	13.19
383.202	57.56
383.417	33.53
383.632	128.66
383.846	30.24
384.061	63.18
384.275	59.3
384.49	44
384.704	47.87
384.919	44.97
385.133	44.77
385.348	56.2
385.562	46.71
385.777	107.55
385.991	70.35
386.206	37.6
386.42	34.31
386.634	107.35
386.849	82.16
387.063	51.36
387.277	21.13
387.492	59.11
387.706	13.38
387.92	55.04
388.135	93.21
388.349	47.29
388.563	51.75
388.778	69.57
388.992	86.43
389.206	104.83
389.42	115.68
389.635	77.9
389.849	94.56
390.063	104.45
390.277	65.7
390.491	119.75
390.706	98.25
390.92	133.9
391.134	59.3
391.348	106.77
391.562	11.25
391.776	67.44
391.99	54.46
392.205	109.87
392.419	76.35
392.633	58.33
392.847	111.61
393.061	49.03
393.275	119.56
393.489	52.72
393.703	73.25
393.917	87.2
394.131	41.09
394.345	70.15
394.559	101.73
394.773	74.03
394.986	98.63
395.2	91.85
395.414	114.33
395.628	62.02
395.842	121.3
396.056	70.54
396.27	63.76
396.484	68.22
396.697	84.49
396.911	123.82
397.125	104.64
397.339	92.63
397.553	78.1
397.766	132.73
397.98	120.14
398.194	153.85
398.408	111.81
398.621	138.16
398.835	152.3
399.049	145.71
399.262	168.38
399.476	146.88
399.69	159.08
399.903	202.87
400.117	145.33
400.331	155.21
400.544	112.39
400.758	242.2
400.971	144.36
401.185	162.38
401.398	94.18
401.612	177.88
401.826	165.48
402.039	181.36
402.253	158.11
402.466	179.23
402.68	162.38
402.893	155.6
403.106	146.88
403.32	132.73
403.533	149.98
403.747	140.48
403.96	168.58
404.174	197.25
404.387	118.4
404.6	181.75
404.814	194.54
405.027	175.94
405.24	154.05
405.454	148.81
405.667	186.79
405.88	117.04
406.094	150.75
406.307	196.67
406.52	160.05
406.733	144.94
406.947	123.24
407.16	223.02
407.373	177.88
407.586	167.99
407.799	130.41
408.012	201.32
408.226	162.18
408.439	250.92
408.652	120.33
408.865	193.38
409.078	231.74
409.291	204.61
409.504	164.7
409.717	201.71
409.93	193.96
410.143	187.56
410.357	133.7
410.57	154.82
410.783	158.11
410.996	175.74
411.209	179.04
411.421	214.3
411.634	230.38
411.847	188.14
412.06	211.59
412.273	213.72
412.486	232.13
412.699	296.26
412.912	201.9
413.125	228.25
413.338	217.01
413.55	244.72
413.763	231.16
413.976	242.78
414.189	194.15
414.402	171.48
414.615	256.34
414.827	167.03
415.04	233.87
415.253	268.16
415.466	229.03
415.678	289.28
415.891	209.46
416.104	217.01
416.316	208.88
416.529	202.09
416.742	251.89
416.954	296.45
417.167	217.98
417.38	208.68
417.592	252.47
417.805	208.49
418.017	188.53
418.23	253.63
418.442	213.72
418.655	218.37
418.868	234.64
419.08	269.32
419.293	286.76
419.505	244.53
419.718	270.87
419.93	261.77
420.142	229.03
420.355	295.29
420.567	272.62
420.78	260.02
420.992	245.88
421.205	305.36
421.417	199.96
421.629	227.09
421.842	232.51
422.054	210.62
422.266	267.97
422.479	277.27
422.691	195.7
422.903	279.79
423.115	208.68
423.328	229.03
423.54	264.29
423.752	242.01
423.964	251.69
424.177	271.46
424.389	258.86
424.601	367.55
424.813	270.1
425.025	296.84
425.238	291.41
425.45	268.16
425.662	239.29
425.874	537.66
426.086	285.99
426.298	261.38
426.51	267.77
426.722	257.12
426.934	240.46
427.146	302.07
427.358	241.23
427.57	298.58
427.782	262.35
427.994	260.8
428.206	250.34
428.418	237.94
428.63	300.91
428.842	325.71
429.054	281.14
429.266	297.22
429.478	224.96
429.69	264.29
429.902	236.58
430.114	287.15
430.325	271.46
430.537	221.86
430.749	228.25
430.961	173.61
431.173	261.38
431.384	277.27
431.596	174.39
431.808	274.56
432.02	285.21
432.231	294.9
432.443	366.78
432.655	312.92
432.867	273.78
433.078	315.82
433.29	379.95
433.502	355.54
433.713	369.49
433.925	321.83
434.136	361.55
434.348	280.76
434.56	266.03
434.771	416.38
434.983	289.67
435.194	310.79
435.406	351.47
435.617	403.2
435.829	378.21
436.04	388.09
436.252	352.64
436.463	410.37
436.675	413.67
436.886	375.89
437.098	417.74
437.309	434.2
437.521	362.13
437.732	386.54
437.943	353.41
438.155	377.82
438.366	338.49
438.578	415.41
438.789	378.79
439	373.95
439.211	347.99
439.423	387.32
439.634	411.54
439.845	398.94
440.057	386.93
440.268	430.13
440.479	384.41
440.69	383.05
440.902	359.03
441.113	394.1
441.324	394.1
441.535	415.02
441.746	470.43
441.957	410.76
442.168	407.85
442.38	470.63
442.591	465.98
442.802	422.58
443.013	399.52
443.224	461.52
443.435	420.64
443.646	422.58
443.857	437.88
444.068	416.57
444.279	428.59
444.49	503.57
444.701	461.13
444.912	558.78
445.123	499.69
445.334	487.1
445.545	519.84
445.756	439.43
445.967	422.19
446.178	476.05
446.388	481.28
446.599	472.76
446.81	468.3
447.021	438.47
447.232	505.12
447.443	532.43
447.653	450.09
447.864	544.64
448.075	492.52
448.286	529.53
448.496	497.95
448.707	518.29
448.918	468.3
449.129	562.08
449.339	463.85
449.55	523.91
449.761	517.71
449.971	552.58
450.182	529.53
450.393	544.64
450.603	498.14
450.814	574.67
451.024	561.88
451.235	597.73
451.446	574.28
451.656	576.8
451.867	538.83
452.077	545.03
452.288	582.42
452.498	595.21
452.709	537.47
452.919	547.93
453.13	529.91
453.34	553.16
453.55	456.1
453.761	568.28
453.971	524.1
454.182	569.05
454.392	537.28
454.602	616.13
454.813	577.58
455.023	593.85
455.233	528.36
455.444	546.19
455.654	506.67
455.864	557.62
456.075	549.87
456.285	531.46
456.495	575.06
456.705	580.29
456.916	628.34
457.126	591.14
457.336	560.91
457.546	528.56
457.756	551.23
457.967	620.98
458.177	553.75
458.387	580.87
458.597	531.66
458.807	572.54
459.017	586.3
459.227	545.8
459.437	578.16
459.647	604.12
459.857	596.56
460.068	550.65
460.278	621.56
460.488	611.29
460.698	661.28
460.908	609.93
461.117	565.37
461.327	571.38
461.537	633.57
461.747	637.64
461.957	639.38
462.167	711.26
462.377	628.53
462.587	618.84
462.797	639.38
463.007	627.56
463.216	645.39
463.426	690.34
463.636	688.59
463.846	582.23
464.056	618.65
464.265	656.82
464.475	597.92
464.685	639.38
464.895	671.16
465.104	630.47
465.314	677.16
465.524	640.93
465.733	611.29
465.943	711.07
466.153	690.14
466.362	679.1
466.572	686.46
466.782	679.1
466.991	675.61
467.201	717.27
467.41	595.4
467.62	655.08
467.829	667.48
468.039	692.66
468.249	654.69
468.458	699.06
468.668	709.52
468.877	692.47
469.086	747.3
469.296	751.56
469.505	703.71
469.715	776.94
469.924	712.42
470.134	750.59
470.343	754.27
470.552	706.61
470.762	697.51
470.971	683.94
471.18	711.65
471.39	702.35
471.599	679.68
471.808	762.41
472.018	711.84
472.227	793.22
472.436	827.51
472.645	775.01
472.855	752.92
473.064	819.76
473.273	802.71
473.482	824.8
473.691	856.96
473.901	817.05
474.11	785.08
474.319	914.31
474.528	799.8
474.737	900.17
474.946	857.35
475.155	857.54
475.364	904.43
475.573	841.85
475.783	870.72
475.992	899.2
476.201	901.72
476.41	868
476.619	851.54
476.828	876.14
477.037	870.72
477.245	878.47
477.454	923.8
477.663	928.84
477.872	911.6
478.081	981.73
478.29	889.32
478.499	980.38
478.708	941.82
478.917	1014.09
479.125	935.62
479.334	976.89
479.543	989.68
479.752	998.59
479.961	1016.8
480.169	1075.31
480.378	1023
480.587	1126.27
480.796	1056.13
481.004	1047.03
481.213	1052.84
481.422	1033.85
481.63	1050.13
481.839	1102.63
482.048	1175.29
482.256	1093.91
482.465	1121.23
482.674	1084.81
482.882	1085.78
483.091	1175.87
483.299	1109.41
483.508	1157.85
483.716	1161.92
483.925	1154.56
484.134	1070.66
484.342	1091.78
484.551	1136.54
484.759	1115.23
484.967	1215.2
485.176	1182.46
485.384	1184.39
485.593	1182.65
485.801	1139.83
486.01	1087.13
486.218	1085
486.426	998.4
486.635	1009.05
486.843	1005.95
487.051	1078.8
487.26	1041.79
487.468	1097.01
487.676	1137.7
487.885	1103.79
488.093	1208.22
488.301	1207.84
488.509	1185.56
488.717	1221.01
488.926	1236.51
489.134	1180.52
489.342	1224.11
489.55	1196.41
489.758	1278.17
489.967	1234.77
490.175	1329.9
490.383	1251.24
490.591	1355.47
490.799	1281.07
491.007	1326.02
491.215	1355.67
491.423	1319.05
491.631	1309.94
491.839	1298.32
492.047	1301.61
492.255	1281.07
492.463	1248.52
492.671	1260.92
492.879	1337.65
493.087	1314.78
493.295	1372.52
493.503	1359.73
493.711	1403.13
493.919	1426
494.127	1427.35
494.334	1423.28
494.542	1349.47
494.75	1407.59
494.958	1392.48
495.166	1440.14
495.374	1415.15
495.581	1430.26
495.789	1419.21
495.997	1512.02
496.205	1422.31
496.412	1439.17
496.62	1440.72
496.828	1453.7
497.035	1449.05
497.243	1485.28
497.451	1467.85
497.658	1496.52
497.866	1453.51
498.074	1533.33
498.281	1485.28
498.489	1494.97
498.696	1421.15
498.904	1446.15
499.112	1421.54
499.319	1483.34
499.527	1463
499.734	1545.34
499.942	1442.46
500.149	1459.13
500.357	1474.05
500.564	1426
500.771	1447.89
500.979	1450.6
501.186	1393.06
501.394	1461.65
501.601	1440.14
501.808	1463.97
502.016	1443.24
502.223	1419.99
502.43	1438.4
502.638	1463.97
502.845	1425.22
503.052	1523.64
503.26	1452.15
503.467	1522.48
503.674	1483.15
503.881	1531.2
504.089	1547.48
504.296	1492.84
504.503	1444.01
504.71	1484.89
504.917	1466.3
505.125	1490.51
505.332	1506.59
505.539	1551.74
505.746	1586.03
505.953	1558.71
506.16	1569.37
506.367	1616.26
506.574	1639.7
506.781	1624.39
506.988	1546.12
507.195	1586.61
507.402	1572.66
507.609	1614.32
507.816	1580.41
508.023	1543.02
508.23	1552.51
508.437	1519.77
508.644	1585.06
508.851	1596.49
509.058	1635.63
509.265	1640.09
509.472	1671.09
509.679	1695.69
509.885	1651.13
510.092	1667.99
510.299	1631.56
510.506	1613.74
510.713	1664.5
510.92	1620.91
511.126	1651.13
511.333	1700.73
511.54	1694.92
511.746	1708.87
511.953	1721.07
512.16	1732.5
512.367	1681.35
512.573	1695.5
512.78	1696.27
512.987	1731.54
513.193	1701.31
513.4	1610.25
513.606	1681.35
513.813	1684.84
514.02	1693.56
514.226	1750.33
514.433	1721.46
514.639	1659.27
514.846	1712.94
515.052	1661.4
515.259	1678.64
515.465	1670.7
515.672	1695.89
515.878	1741.61
516.085	1718.55
516.291	1748.39
516.497	1700.92
516.704	1689.49
516.91	1623.62
517.117	1571.31
517.323	1522.29
517.529	1564.14
517.736	1585.26
517.942	1579.44
518.148	1608.31
518.354	1621.87
518.561	1636.41
518.767	1592.23
518.973	1664.11
519.179	1741.22
519.386	1706.74
519.592	1691.43
519.798	1663.14
520.004	1787.53
520.21	1734.83
520.417	1797.8
520.623	1829.96
520.829	1854.76
521.035	1858.05
521.241	1824.73
521.447	1857.28
521.653	1938.46
521.859	1836.55
522.065	1890.02
522.271	1950.28
522.477	1902.42
522.683	1946.01
522.889	1888.08
523.095	1870.45
523.301	1866
523.507	1851.46
523.713	1871.42
523.919	1873.75
524.125	1945.43
524.331	1938.07
524.537	2008.98
524.742	1975.08
524.948	1999.68
525.154	2036.11
525.36	2111.67
525.566	1976.82
525.772	2045.02
525.977	1946.59
526.183	2019.83
526.389	2019.83
526.595	1961.71
526.8	1950.08
527.006	1880.91
527.212	1803.22
527.417	1831.9
527.623	1832.67
527.829	1927.99
528.034	1924.89
528.24	1963.64
528.446	1946.4
528.651	2089.58
528.857	2040.56
529.062	2107.99
529.268	2072.53
529.473	2106.82
529.679	2114.57
529.884	2172.89
530.09	2131.24
530.295	2163.4
530.501	2152.94
530.706	2166.89
530.912	2111.09
531.117	2141.31
531.323	2157.97
531.528	2207.38
531.733	2200.21
531.939	2161.07
532.144	2179.48
532.35	2159.91
532.555	2185.1
532.76	2137.82
532.966	2151.58
533.171	2139.76
533.376	2091.52
533.581	2053.74
533.787	2128.52
533.992	2174.25
534.197	2143.64
534.402	2142.86
534.607	2173.09
534.813	2282.75
535.018	2173.67
535.223	2232.76
535.428	2224.62
535.633	2279.26
535.838	2257.56
536.043	2255.43
536.249	2351.72
536.454	2277.71
536.659	2283.13
536.864	2266.47
537.069	2245.16
537.274	2266.28
537.479	2262.79
537.684	2251.36
537.889	2211.64
538.094	2347.65
538.299	2285.46
538.504	2322.08
538.708	2283.91
538.913	2333.12
539.118	2322.66
539.323	2301.73
539.528	2320.14
539.733	2270.35
539.938	2293.21
540.142	2318.98
540.347	2269.96
540.552	2224.04
540.757	2242.06
540.962	2277.71
541.166	2222.49
541.371	2196.33
541.576	2276.55
541.781	2185.68
541.985	2303.48
542.19	2306.38
542.395	2334.67
542.599	2366.44
542.804	2336.61
543.008	2385.43
543.213	2322.46
543.418	2230.82
543.622	2326.73
543.827	2268.02
544.031	2381.75
544.236	2389.69
544.44	2401.71
544.645	2452.47
544.849	2360.63
545.054	2390.28
545.258	2470.49
545.463	2473.78
545.667	2390.08
545.872	2473.01
546.076	2409.84
546.281	2408.29
546.485	2396.86
546.689	2398.61
546.894	2442.97
547.098	2384.46
547.302	2407.52
547.507	2375.74
547.711	2441.42
547.915	2456.34
548.119	2388.34
548.324	2400.35
548.528	2462.74
548.732	2423.6
548.936	2424.18
549.141	2481.34
549.345	2407.91
549.549	2503.42
549.753	2445.69
549.957	2547.02
550.161	2527.84
550.366	2480.17
550.57	2448.98
550.774	2492.38
550.978	2434.45
551.182	2451.31
551.386	2491.02
551.59	2441.23
551.794	2481.14
551.998	2499.55
552.202	2473.01
552.406	2433.87
552.61	2503.04
552.814	2467.19
553.018	2535.59
553.222	2436.19
553.426	2457.7
553.63	2524.93
553.833	2463.9
554.037	2454.99
554.241	2491.22
554.445	2501.68
554.649	2497.03
554.853	2476.49
555.056	2510.59
555.26	2584.8
555.464	2475.33
555.668	2541.98
555.871	2518.54
556.075	2496.06
556.279	2492.38
556.483	2453.63
556.686	2475.33
556.89	2464.87
557.094	2463.32
557.297	2398.61
557.501	2534.04
557.704	2397.64
557.908	2491.02
558.112	2389.5
558.315	2479.01
558.519	2448.21
558.722	2435.42
558.926	2399.58
559.129	2299.99
559.333	2342.81
559.536	2312.2
559.74	2302.7
559.943	2324.21
560.147	2338.16
560.35	2336.61
560.553	2344.55
560.757	2290.88
560.96	2396.48
561.164	2331.38
561.367	2407.13
561.57	2356.76
561.774	2345.52
561.977	2327.89
562.18	2291.08
562.384	2391.44
562.587	2335.06
562.79	2302.12
562.993	2335.25
563.197	2339.9
563.4	2389.69
563.603	2404.61
563.806	2394.73
564.009	2323.63
564.212	2319.56
564.416	2264.92
564.619	2302.9
564.822	2232.95
565.025	2312
565.228	2302.9
565.431	2325.95
565.634	2192.46
565.837	2230.82
566.04	2233.73
566.243	2196.14
566.446	2129.88
566.649	2237.6
566.852	2149.25
567.055	2205.44
567.258	2232.18
567.461	2269.18
567.664	2284.49
567.867	2191.3
568.07	2188.58
568.273	2229.47
568.475	2273.25
568.678	2200.79
568.881	2169.21
569.084	2168.63
569.287	2072.53
569.489	2075.63
569.692	2172.7
569.895	2194.78
570.098	2054.71
570.3	2050.25
570.503	2032.04
570.706	2026.81
570.909	2024.87
571.111	2025.06
571.314	1978.95
571.516	2011.5
571.719	2057.61
571.922	2015.96
572.124	2044.05
572.327	2064.01
572.529	1980.89
572.732	2046.37
572.935	2021.38
573.137	2088.81
573.34	2005.88
573.542	2067.69
573.745	2040.17
573.947	2025.64
574.15	2034.94
574.352	1988.44
574.554	2088.61
574.757	1992.51
574.959	1940.59
575.162	1993.29
575.364	1956.67
575.566	2054.12
575.769	1977.21
575.971	1998.13
576.173	1882.46
576.376	1974.88
576.578	1976.63
576.78	2055.48
576.982	1908.62
577.185	1937.88
577.387	1904.55
577.589	1898.93
577.791	1936.52
577.993	1988.06
578.196	1917.14
578.398	1981.66
578.6	1975.27
578.802	1866.38
579.004	1852.05
579.206	1836.93
579.408	1919.86
579.61	1901.84
579.812	1953.96
580.014	1851.46
580.216	1890.02
580.418	1918.89
580.62	1934.39
580.822	1899.9
581.024	1926.44
581.226	2017.89
581.428	1946.79
581.63	2016.15
581.832	1930.71
582.034	2015.76
582.236	1951.63
582.438	2000.84
582.64	2026.22
582.841	2048.89
583.043	2052.57
583.245	1956.48
583.447	2005.88
583.649	1982.83
583.85	1975.46
584.052	2040.37
584.254	1978.18
584.456	2039.21
584.657	1918.31
584.859	1998.52
585.061	1933.61
585.262	1958.99
585.464	1950.08
585.666	1957.83
585.867	1935.94
586.069	1990.38
586.27	1947.18
586.472	1943.3
586.674	1932.64
586.875	1934
587.077	1915.01
587.278	1937.88
587.48	1936.13
587.681	2013.82
587.883	1964.23
588.084	1908.81
588.285	1899.9
588.487	1868.13
588.688	1856.11
588.89	1759.43
589.091	1746.07
589.292	1743.16
589.494	1691.62
589.695	1686
589.896	1602.69
590.098	1612.96
590.299	1689.3
590.5	1664.3
590.702	1747.81
590.903	1722.82
591.104	1798.38
591.305	1761.18
591.507	1828.99
591.708	1805.93
591.909	1797.8
592.11	1841.78
592.311	1805.35
592.512	1773
592.714	1737.93
592.915	1754.98
593.116	1748.39
593.317	1806.32
593.518	1802.25
593.719	1795.08
593.92	1862.31
594.121	1806.52
594.322	1776.48
594.523	1788.3
594.724	1716.81
594.925	1747.62
595.126	1752.27
595.327	1769.12
595.528	1768.93
595.729	1789.66
595.929	1766.6
596.13	1755.17
596.331	1802.06
596.532	1791.4
596.733	1866.38
596.934	1818.92
597.135	1844.88
597.335	1854.18
597.536	1783.46
597.737	1816.78
597.938	1786.37
598.138	1806.71
598.339	1820.27
598.54	1805.74
598.74	1786.37
598.941	1835.58
599.142	1856.7
599.342	1827.25
599.543	1759.63
599.744	1800.7
599.944	1810.39
600.145	1776.87
600.345	1814.46
600.546	1917.53
600.746	1835.19
600.947	1913.46
601.147	1817.37
601.348	1855.92
601.548	1758.85
601.749	1814.85
601.949	1731.54
602.15	1812.91
602.35	1780.94
602.551	1812.72
602.751	1775.52
602.951	1763.12
603.152	1705.57
603.352	1825.7
603.552	1795.08
603.753	1851.66
603.953	1826.28
604.153	1812.91
604.354	1855.15
604.554	1781.13
604.754	1803.22
604.954	1786.17
605.155	1849.72
605.355	1806.71
605.555	1840.42
605.755	1835.38
605.955	1802.25
606.155	1790.43
606.356	1804.97
606.556	1821.05
606.756	1819.11
606.956	1729.6
607.156	1814.85
607.356	1791.4
607.556	1767.18
607.756	1778.03
607.956	1833.45
608.156	1786.75
608.356	1695.89
608.556	1819.69
608.756	1796.44
608.956	1742.38
609.156	1765.44
609.356	1748.39
609.556	1731.73
609.755	1787.53
609.955	1732.12
610.155	1746.84
610.355	1747.03
610.555	1722.04
610.755	1755.95
610.954	1709.84
611.154	1716.23
611.354	1783.07
611.554	1745.68
611.753	1726.11
611.953	1727.47
612.153	1744.9
612.352	1714.1
612.552	1669.15
612.752	1673.6
612.951	1686.2
613.151	1696.08
613.351	1695.3
613.55	1682.13
613.75	1699.18
613.949	1636.99
614.149	1676.32
614.348	1682.52
614.548	1624.01
614.747	1628.07
614.947	1635.63
615.146	1583.9
615.346	1717.39
615.545	1688.72
615.745	1685.23
615.944	1688.52
616.144	1667.99
616.343	1669.15
616.542	1639.51
616.742	1626.72
616.941	1633.5
617.14	1582.54
617.34	1633.31
617.539	1624.97
617.738	1622.07
617.938	1663.34
618.137	1599.98
618.336	1597.46
618.535	1670.5
618.734	1611.22
618.934	1638.54
619.133	1662.56
619.332	1720.1
619.531	1631.17
619.73	1619.94
619.929	1643.38
620.128	1656.36
620.328	1677.67
620.527	1645.12
620.726	1638.92
620.925	1647.84
621.124	1599.4
621.323	1606.57
621.522	1563.56
621.721	1624.39
621.92	1572.08
622.119	1624.78
622.318	1596.3
622.517	1614.12
622.715	1593.2
622.914	1526.55
623.113	1619.74
623.312	1538.37
623.511	1598.24
623.71	1579.44
623.909	1536.43
624.107	1617.03
624.306	1512.41
624.505	1571.69
624.704	1543.41
624.902	1545.54
625.101	1598.04
625.3	1551.93
625.499	1508.14
625.697	1509.11
625.896	1497.88
626.095	1576.92
626.293	1461.65
626.492	1508.53
626.69	1540.89
626.889	1489.74
627.088	1570.34
627.286	1513.18
627.485	1454.86
627.683	1434.33
627.882	1478.31
628.08	1403.91
628.279	1436.07
628.477	1516.48
628.676	1398.48
628.874	1458.16
629.073	1419.41
629.271	1439.36
629.469	1428.71
629.668	1419.41
629.866	1410.3
630.065	1402.55
630.263	1427.35
630.461	1389.77
630.66	1469.98
630.858	1438.2
631.056	1489.93
631.254	1512.6
631.453	1413.79
631.651	1477.34
631.849	1431.42
632.047	1449.25
632.245	1450.8
632.444	1481.99
632.642	1476.18
632.84	1469.2
633.038	1442.66
633.236	1459.71
633.434	1470.36
633.632	1407.2
633.83	1421.35
634.028	1485.28
634.227	1486.44
634.425	1561.43
634.623	1484.31
634.821	1479.47
635.019	1504.66
635.216	1455.83
635.414	1490.9
635.612	1514.34
635.81	1476.37
636.008	1513.76
636.206	1442.85
636.404	1507.18
636.602	1456.03
636.8	1490.9
636.997	1502.53
637.195	1519.96
637.393	1489.35
637.591	1526.55
637.789	1498.46
637.986	1455.25
638.184	1501.17
638.382	1553.68
638.58	1509.89
638.777	1580.8
638.975	1510.66
639.173	1515.51
639.37	1485.48
639.568	1505.24
639.765	1502.14
639.963	1457.38
640.161	1505.43
640.358	1503.11
640.556	1438.2
640.753	1477.73
640.951	1403.52
641.148	1470.95
641.346	1448.47
641.543	1467.07
641.741	1489.16
641.938	1424.83
642.136	1442.85
642.333	1441.5
642.531	1477.34
642.728	1505.24
642.925	1470.17
643.123	1428.9
643.32	1489.93
643.517	1475.01
643.715	1451.96
643.912	1461.26
644.109	1458.74
644.306	1432.78
644.504	1411.46
644.701	1446.73
644.898	1486.25
645.095	1418.44
645.293	1421.35
645.49	1453.31
645.687	1510.28
645.884	1458.16
646.081	1336.48
646.278	1388.41
646.475	1371.55
646.672	1362.06
646.87	1390.54
647.067	1399.26
647.264	1369.03
647.461	1339.58
647.658	1320.79
647.855	1418.83
648.052	1347.92
648.249	1314.4
648.446	1320.21
648.642	1369.62
648.839	1308
649.036	1327.57
649.233	1279.14
649.43	1310.13
649.627	1248.33
649.824	1291.92
650.021	1289.21
650.217	1303.16
650.414	1326.99
650.611	1328.93
650.808	1350.24
651.004	1339.58
651.201	1365.74
651.398	1413.79
651.595	1345.78
651.791	1339
651.988	1373.49
652.185	1302.19
652.381	1345.2
652.578	1264.99
652.775	1377.75
652.971	1335.32
653.168	1304.13
653.364	1364.77
653.561	1270.8
653.757	1307.23
653.954	1324.28
654.15	1298.51
654.347	1399.26
654.543	1333.97
654.74	1278.55
654.936	1283.59
655.133	1306.84
655.329	1322.34
655.525	1267.51
655.722	1271.77
655.918	1236.51
656.115	1228.37
656.311	1155.14
656.507	1109.22
656.704	1109.41
656.9	1126.85
657.096	1137.7
657.292	1122.78
657.489	1213.26
657.685	1200.67
657.881	1182.07
658.077	1180.32
658.273	1253.37
658.47	1303.35
658.666	1276.62
658.862	1291.54
659.058	1257.24
659.254	1309.94
659.45	1271
659.646	1290.37
659.842	1276.23
660.038	1339.39
660.234	1256.47
660.43	1297.74
660.626	1358.96
660.822	1328.54
661.018	1322.53
661.214	1322.53
661.41	1259.95
661.606	1317.69
661.802	1356.63
661.998	1283.98
662.194	1288.05
662.39	1334.16
662.586	1304.32
662.781	1318.27
662.977	1329.7
663.173	1371.55
663.369	1306.65
663.564	1320.21
663.76	1341.13
663.956	1286.3
664.152	1333.38
664.347	1277.78
664.543	1258.02
664.739	1305.29
664.934	1240.97
665.13	1279.91
665.326	1313.23
665.521	1325.63
665.717	1248.52
665.912	1260.34
666.108	1192.34
666.304	1299.67
666.499	1239.03
666.695	1193.89
666.89	1249.1
667.086	1286.11
667.281	1263.83
667.477	1357.6
667.672	1296.57
667.867	1279.72
668.063	1290.95
668.258	1251.04
668.454	1290.76
668.649	1336.68
668.844	1275.65
669.04	1294.83
669.235	1266.74
669.43	1280.1
669.626	1198.34
669.821	1238.25
670.016	1201.25
670.211	1277.39
670.407	1191.17
670.602	1258.6
670.797	1202.41
670.992	1244.26
671.187	1190.59
671.382	1255.69
671.578	1183.62
671.773	1219.07
671.968	1184.2
672.163	1218.69
672.358	1205.51
672.553	1208.03
672.748	1175.87
672.943	1252.79
673.138	1201.44
673.333	1252.98
673.528	1165.79
673.723	1234.38
673.918	1221.79
674.113	1150.68
674.308	1263.44
674.503	1226.82
674.698	1268.87
674.892	1214.04
675.087	1237.09
675.282	1210.16
675.477	1169.67
675.672	1254.53
675.867	1213.84
676.061	1160.76
676.256	1146.81
676.451	1185.94
676.646	1201.25
676.84	1174.71
677.035	1147.58
677.23	1178
677.424	1201.25
677.619	1234.19
677.814	1242.52
678.008	1222.17
678.203	1148.74
678.397	1169.09
678.592	1167.15
678.787	1242.32
678.981	1155.52
679.176	1175.87
679.37	1180.91
679.565	1161.92
679.759	1225.08
679.954	1208.61
680.148	1265.38
680.342	1252.4
680.537	1224.5
680.731	1154.75
680.926	1190.98
681.12	1202.8
681.314	1145.45
681.509	1204.35
681.703	1151.84
681.897	1158.82
682.092	1146.81
682.286	1125.3
682.48	1218.1
682.674	1180.13
682.869	1152.42
683.063	1175.87
683.257	1219.07
683.451	1142.16
683.645	1163.08
683.839	1184.01
684.034	1111.74
684.228	1161.92
684.422	1093.91
684.616	1108.83
684.81	1189.62
685.004	1118.52
685.198	1122.39
685.392	1169.86
685.586	1117.94
685.78	1125.49
685.974	1142.54
686.168	1144.87
686.362	1170.06
686.556	1043.73
686.75	992.78
686.944	955.19
687.138	923.03
687.331	863.35
687.525	846.5
687.719	781.01
687.913	857.93
688.107	848.05
688.301	840.69
688.494	893.58
688.688	801.94
688.882	818.99
689.076	787.21
689.269	829.06
689.463	921.48
689.657	846.69
689.85	866.65
690.044	851.34
690.238	889.51
690.431	860.84
690.625	886.22
690.818	928.07
691.012	945.31
691.205	961.58
691.399	935.62
691.593	952.48
691.786	1019.32
691.98	1024.36
692.173	1016.41
692.366	1047.8
692.56	1052.84
692.753	1088.88
692.947	982.7
693.14	1074.15
693.333	1017.38
693.527	1004.79
693.72	1066.59
693.914	1039.47
694.107	1024.55
694.3	1031.53
694.493	1001.5
694.687	1086.94
694.88	1009.05
695.073	1112.32
695.266	1090.43
695.46	1044.12
695.653	1135.18
695.846	1073.18
696.039	1015.64
696.232	1069.5
696.425	1131.5
696.618	1128.59
696.812	1134.79
697.005	1203.57
697.198	1277.97
697.391	1172.19
697.584	1241.74
697.777	1255.11
697.97	1218.49
698.163	1270.61
698.356	1225.27
698.549	1315.75
698.742	1300.06
698.935	1211.32
699.127	1266.35
699.32	1234.57
699.513	1252.01
699.706	1277.78
699.899	1277.2
700.092	1271.19
700.285	1258.02
700.477	1236.7
700.67	1273.9
700.863	1339
701.056	1389.38
701.248	1374.07
701.441	1407.2
701.634	1343.27
701.826	1418.44
702.019	1295.41
702.212	1373.1
702.404	1332.8
702.597	1343.46
702.79	1403.13
702.982	1405.07
703.175	1443.43
703.367	1464.16
703.56	1469.01
703.752	1542.63
703.945	1531.98
704.137	1524.03
704.33	1540.5
704.522	1539.14
704.715	1539.73
704.907	1578.28
705.1	1594.56
705.292	1603.86
705.484	1600.56
705.677	1608.89
705.869	1680.19
706.061	1679.22
706.254	1676.12
706.446	1655.78
706.638	1663.53
706.831	1729.79
707.023	1702.86
707.215	1807.48
707.407	1793.73
707.599	1769.12
707.792	1814.27
707.984	1774.74
708.176	1842.16
708.368	1793.34
708.56	1839.65
708.752	1845.07
708.944	1833.83
709.136	1864.06
709.329	1884.4
709.521	1968.29
709.713	1901.65
709.905	1948.34
710.097	1987.86
710.289	1908.43
710.481	1946.98
710.672	1963.84
710.864	1996.97
711.056	2032.62
711.248	2042.31
711.44	2032.62
711.632	2034.75
711.824	2071.95
712.016	2124.07
712.207	2154.1
712.399	2105.08
712.591	2196.33
712.783	2182.19
712.975	2160.49
713.166	2112.05
713.358	2177.35
713.55	2196.53
713.741	2213.77
713.933	2216.48
714.125	2194.78
714.316	2163.2
714.508	2306.19
714.7	2286.81
714.891	2278.87
715.083	2295.34
715.274	2262.6
715.466	2288.75
715.657	2288.56
715.849	2248.84
716.04	2282.55
716.232	2225.01
716.423	2285.46
716.615	2187.62
716.806	2158.94
716.998	2103.53
717.189	2064.97
717.381	1928.38
717.572	1939.23
717.763	1948.73
717.955	1937.68
718.146	1916.56
718.337	1853.21
718.528	1828.02
718.72	1768.73
718.911	1786.95
719.102	1789.66
719.293	1796.44
719.485	1779.2
719.676	1773
719.867	1752.46
720.058	1791.6
720.249	1768.15
720.44	1763.5
720.632	1869.1
720.823	1911.14
721.014	2053.54
721.205	2081.83
721.396	2140.73
721.587	2254.85
721.778	2323.82
721.969	2357.53
722.16	2386.21
722.351	2410.04
722.542	2492.96
722.733	2529.58
722.924	2447.24
723.115	2499.36
723.305	2493.16
723.496	2540.62
723.687	2352.88
723.878	2391.24
724.069	2367.41
724.26	2381.56
724.45	2346.88
724.641	2296.11
724.832	2386.21
725.023	2349.01
725.213	2344.55
725.404	2318.01
725.595	2337.96
725.785	2308.9
725.976	2383.69
726.167	2370.9
726.357	2393.96
726.548	2520.86
726.739	2419.73
726.929	2504.78
727.12	2519.12
727.31	2532.87
727.501	2457.89
727.691	2493.93
727.882	2481.53
728.072	2548.57
728.263	2572.98
728.453	2664.82
728.644	2646.8
728.834	2620.25
729.024	2588.09
729.215	2610.37
729.405	2631.49
729.596	2706.28
729.786	2738.63
729.976	2743.48
730.167	2747.16
730.357	2712.48
730.547	2695.23
730.737	2729.91
730.928	2816.33
731.118	2801.6
731.308	2797.53
731.498	2803.54
731.688	2934.51
731.879	2919.4
732.069	2981.59
732.259	3048.44
732.449	3087.96
732.639	3156.55
732.829	3216.41
733.019	3234.04
733.209	3323.94
733.399	3350.68
733.589	3409.97
733.779	3421.98
733.969	3430.12
734.159	3516.14
734.349	3522.92
734.539	3599.26
734.729	3570.2
734.919	3645.37
735.109	3660.29
735.299	3627.55
735.488	3660.1
735.678	3625.03
735.868	3652.15
736.058	3678.69
736.248	3663.19
736.437	3647.11
736.627	3676.18
736.817	3811.99
737.007	3675.21
737.196	3779.25
737.386	3775.37
737.576	3727.13
737.765	3785.06
737.955	3795.91
738.144	3903.64
738.334	3836.6
738.524	3815.09
738.713	3819.36
738.903	3825.56
739.092	3891.24
739.282	3895.3
739.471	3923.01
739.661	3914.87
739.85	3991.6
740.04	3976.68
740.229	3965.63
740.419	4013.1
740.608	4058.63
740.797	4009.62
740.987	4063.67
741.176	4043.33
741.365	4075.3
741.555	3994.89
741.744	4117.53
741.933	4059.8
742.123	4046.23
742.312	4109.59
742.501	4172.17
742.69	4154.54
742.88	4066.96
743.069	4229.32
743.258	4194.45
743.447	4240.76
743.636	4194.06
743.825	4197.36
744.014	4225.45
744.204	4262.26
744.393	4192.32
744.582	4320
744.771	4296.75
744.96	4218.86
745.149	4285.51
745.338	4237.07
745.527	4270.79
745.716	4236.69
745.905	4262.26
746.094	4372.5
746.283	4276.21
746.471	4291.32
746.66	4367.85
746.849	4333.56
747.038	4295.39
747.227	4258
747.416	4373.28
747.604	4309.15
747.793	4298.1
747.982	4311.47
748.171	4368.43
748.359	4338.02
748.548	4312.44
748.737	4328.72
748.926	4310.89
749.114	4196.77
749.303	4282.6
749.491	4323.68
749.68	4233.39
749.869	4319.03
750.057	4260.13
750.246	4230.49
750.434	4278.34
750.623	4215.96
750.811	4245.02
751	4307.79
751.188	4193.67
751.377	4285.51
751.565	4292.49
751.754	4237.46
751.942	4247.15
752.131	4337.05
752.319	4280.28
752.507	4208.98
752.696	4229.32
752.884	4252.96
753.072	4210.53
753.261	4212.66
753.449	4246.18
753.637	4195.03
753.825	4315.74
754.014	4234.56
754.202	4211.69
754.39	4280.86
754.578	4269.82
754.766	4227.58
754.955	4168.49
755.143	4274.85
755.331	4183.21
755.519	4199.1
755.707	4221.96
755.895	4171.01
756.083	4186.51
756.271	4133.42
756.459	4132.06
756.647	4177.79
756.835	4106.29
757.023	4107.65
757.211	4135.74
757.399	4084.98
757.587	4127.03
757.775	4052.43
757.963	4085.37
758.151	4072.58
758.339	4026.08
758.526	3998.18
758.714	4031.51
758.902	3894.72
759.09	3759.49
759.278	3527.38
759.465	3251.29
759.653	2834.15
759.841	2556.9
760.028	2225.98
760.216	1933.03
760.404	1754.78
760.591	1462.23
760.779	1247.94
760.967	1067.95
761.154	897.45
761.342	931.75
761.529	912.57
761.717	967.98
761.905	980.38
762.092	1059.04
762.28	950.35
762.467	966.81
762.655	904.43
762.842	895.52
763.029	930.39
763.217	952.48
763.404	937.75
763.592	982.12
763.779	938.14
763.966	996.07
764.154	1010.21
764.341	1078.61
764.528	1120.26
764.716	1193.89
764.903	1209.77
765.09	1320.4
765.277	1386.67
765.465	1555.42
765.652	1607.34
765.839	1747.23
766.026	1877.62
766.213	1954.93
766.4	2059.74
766.588	2281.2
766.775	2313.75
766.962	2461.19
767.149	2560.58
767.336	2692.72
767.523	2698.53
767.71	2883.56
767.897	2965.12
768.084	3004.84
768.271	3118.38
768.458	3212.15
768.645	3300.11
768.832	3262.33
769.019	3309.03
769.206	3313.67
769.392	3395.82
769.579	3529.32
769.766	3458.99
769.953	3460.92
770.14	3558.57
770.327	3553.73
770.513	3571.75
770.7	3653.9
770.887	3552.18
771.073	3649.05
771.26	3607.2
771.447	3613.01
771.634	3584.53
771.82	3659.71
772.007	3559.54
772.193	3674.04
772.38	3709.11
772.567	3624.45
772.753	3581.24
772.94	3703.88
773.126	3684.7
773.313	3652.54
773.499	3629.1
773.686	3675.98
773.872	3593.64
774.059	3629.68
774.245	3568.26
774.432	3613.21
774.618	3573.88
774.804	3613.01
774.991	3588.21
775.177	3614.76
775.363	3631.03
775.55	3596.74
775.736	3526.02
775.922	3577.56
776.109	3546.75
776.295	3543.65
776.481	3630.26
776.667	3574.85
776.853	3534.16
777.04	3519.05
777.226	3539.97
777.412	3597.9
777.598	3533.19
777.784	3507.03
777.97	3552.18
778.156	3542.3
778.342	3484.37
778.528	3479.91
778.715	3403.38
778.901	3497.73
779.087	3512.07
779.272	3436.12
779.458	3411.32
779.644	3435.15
779.83	3432.44
780.016	3505.29
780.202	3422.37
780.388	3435.74
780.574	3328.59
780.76	3394.66
780.946	3375.29
781.131	3394.08
781.317	3360.76
781.503	3340.02
781.689	3353.2
781.874	3431.28
782.06	3343.71
782.246	3342.74
782.432	3326.07
782.617	3373.74
782.803	3390.4
782.989	3297.4
783.174	3296.04
783.36	3269.89
783.545	3307.28
783.731	3297.01
783.916	3220.29
784.102	3248.58
784.288	3225.91
784.473	3233.08
784.659	3202.27
784.844	3243.15
785.029	3219.71
785.215	3193.36
785.4	3163.33
785.586	3295.27
785.771	3132.33
785.956	3205.76
786.142	3189.68
786.327	3198.4
786.512	3162.94
786.698	3109.85
786.883	3099.58
787.068	3110.82
787.254	3139.69
787.439	3099.2
787.624	3112.95
787.809	3050.95
787.994	3048.44
788.18	3082.73
788.365	3029.25
788.55	3063.16
788.735	3029.64
788.92	3033.52
789.105	3011.82
789.29	3019.76
789.475	2984.89
789.66	2929.47
789.845	2924.24
790.03	2893.24
790.215	2943.62
790.4	2963.77
790.585	2980.43
790.77	2936.06
790.955	2911.65
791.14	2967.64
791.325	2953.89
791.51	2842.68
791.695	2897.12
791.879	2903.51
792.064	2855.08
792.249	2941.87
792.434	2877.16
792.618	2867.48
792.803	2956.21
792.988	2901.57
793.173	2898.28
793.357	2947.88
793.542	2889.76
793.727	2909.91
793.911	2934.71
794.096	2900.99
794.281	2934.71
794.465	3014.72
794.65	2950.79
794.834	3002.9
795.019	2996.7
795.203	3031
795.388	3013.56
795.572	3032.16
795.757	2985.27
795.941	2965.12
796.126	2979.46
796.31	2909.52
796.494	2946.14
796.679	2945.36
796.863	2896.15
797.048	2968.22
797.232	2979.27
797.416	2977.72
797.601	2982.37
797.785	3022.09
797.969	3015.11
798.153	2974.81
798.338	3046.5
798.522	3027.7
798.706	3062.19
798.89	3050.76
799.074	3127.68
799.258	3078.66
799.443	3011.82
799.627	3012.98
799.811	3051.15
799.995	2993.8
800.179	2992.25
800.363	2971.13
800.547	3015.89
800.731	3002.71
800.915	2914.94
801.099	2923.66
801.283	3001.35
801.467	2940.13
801.651	2975
801.835	2998.64
802.019	2957.57
802.202	3018.79
802.386	2925.21
802.57	2901.77
802.754	2922.69
802.938	2880.26
803.121	2893.82
803.305	3003.29
803.489	2937.42
803.673	2957.76
803.856	2979.07
804.04	2934.71
804.224	3000.97
804.407	2956.79
804.591	2946.91
804.775	2937.22
804.958	2921.72
805.142	3052.7
805.326	2984.69
805.509	2983.72
805.693	2999.8
805.876	2969.39
806.06	2998.45
806.243	3018.21
806.427	3052.12
806.61	3052.31
806.794	2967.45
806.977	3032.16
807.16	2999.42
807.344	2985.66
807.527	2964.93
807.71	2962.02
807.894	2966.09
808.077	3003.1
808.26	2934.32
808.444	2887.04
808.627	2980.04
808.81	2895.57
808.993	2857.98
809.177	2881.42
809.36	2913.39
809.543	2888.79
809.726	2760.33
809.909	2799.47
810.092	2737.66
810.276	2768.47
810.459	2767.31
810.642	2780.68
810.825	2736.11
811.008	2720.81
811.191	2638.66
811.374	2653.58
811.557	2646.02
811.74	2715.38
811.923	2592.16
812.106	2587.12
812.289	2572.01
812.472	2542.75
812.654	2544.89
812.837	2533.45
813.02	2445.49
813.203	2408.49
813.386	2330.41
813.569	2305.41
813.751	2255.82
813.934	2281.2
814.117	2238.96
814.3	2208.73
814.482	2146.74
814.665	2086.67
814.848	2041.14
815.03	2023.9
815.213	2001.23
815.396	2021.96
815.578	1936.71
815.761	1939.43
815.943	1972.94
816.126	1841.39
816.309	1852.63
816.491	1772.61
816.674	1743.35
816.856	1797.41
817.039	1774.35
817.221	1834.03
817.403	1786.37
817.586	1802.83
817.768	1819.69
817.951	1742.97
818.133	1732.7
818.315	1753.62
818.498	1788.3
818.68	1859.99
818.862	1858.63
819.045	1853.4
819.227	1812.52
819.409	1832.28
819.591	1846.81
819.774	1817.17
819.956	1828.02
820.138	1875.88
820.32	1877.04
820.502	1940.59
820.684	2014.21
820.866	2018.28
821.048	2073.69
821.231	2131.62
821.413	2121.35
821.595	2067.88
821.777	2075.05
821.959	2050.64
822.141	2112.64
822.323	1981.47
822.505	1889.44
822.686	1868.71
822.868	1757.69
823.05	1658.49
823.232	1609.86
823.414	1541.47
823.596	1596.49
823.778	1664.3
823.96	1648.42
824.141	1650.74
824.323	1690.07
824.505	1761.76
824.687	1849.91
824.868	1881.11
825.05	1988.44
825.232	2018.09
825.413	2071.95
825.595	2022.35
825.777	1996.78
825.958	2049.67
826.14	2015.57
826.321	2060.52
826.503	2014.6
826.685	2061.29
826.866	2044.63
827.048	2032.42
827.229	1944.85
827.411	1939.04
827.592	1899.51
827.773	1897.77
827.955	1815.82
828.136	1842.55
828.318	1825.31
828.499	1835.77
828.68	1823.95
828.862	1831.31
829.043	1859.6
829.224	1791.02
829.406	1779.97
829.587	1795.47
829.768	1831.7
829.949	1819.5
830.131	1816.01
830.312	1872.97
830.493	1807.87
830.674	1840.23
830.855	1818.14
831.036	1832.09
831.218	1887.31
831.399	1918.31
831.58	1842.94
831.761	1822.98
831.942	1832.09
832.123	1829.38
832.304	1770.87
832.485	1779.97
832.666	1817.37
832.847	1868.71
833.028	1854.37
833.209	1814.27
833.389	1824.15
833.57	1774.55
833.751	1775.9
833.932	1842.94
834.113	1808.45
834.294	1814.85
834.475	1873.16
834.655	1872.97
834.836	1907.85
835.017	1881.5
835.198	1787.33
835.378	1831.51
835.559	1929.35
835.74	1865.8
835.92	1852.82
836.101	1821.24
836.281	1885.37
836.462	1868.32
836.643	1929.74
836.823	1911.33
837.004	1946.4
837.184	1962.68
837.365	1909.2
837.545	1949.89
837.726	1913.46
837.906	1978.76
838.087	1962.09
838.267	1895.45
838.448	1870.06
838.628	1907.46
838.808	1900.68
838.989	1961.32
839.169	1889.05
839.349	1938.65
839.53	1934.97
839.71	1943.88
839.89	1885.95
840.07	1951.05
840.251	1907.85
840.431	1935.94
840.611	1910.75
840.791	1896.41
840.971	1931.87
841.151	1905.71
841.332	1877.23
841.512	1930.13
841.692	1853.79
841.872	1947.76
842.052	1878.78
842.232	1937.68
842.412	1827.25
842.592	1866.96
842.772	1924.12
842.952	1909.78
843.132	1868.71
843.312	1839.06
843.492	1840.23
843.672	1918.69
843.851	1834.41
844.031	1857.08
844.211	1832.09
844.391	1843.71
844.571	1852.24
844.751	1908.23
844.93	1875.68
845.11	1872.78
845.29	1890.41
845.47	1896.22
845.649	1879.75
845.829	1921.21
846.009	1845.46
846.188	1890.41
846.368	1864.25
846.547	1872.58
846.727	1896.03
846.907	1799.15
847.086	1854.76
847.266	1863.28
847.445	1861.73
847.625	1822.02
847.804	1798.38
847.984	1834.61
848.163	1786.95
848.343	1789.85
848.522	1807.87
848.701	1818.33
848.881	1804.77
849.06	1777.07
849.239	1750.72
849.419	1795.28
849.598	1748
849.777	1733.47
849.957	1676.32
850.136	1658.3
850.315	1634.47
850.494	1645.32
850.674	1635.05
850.853	1705.38
851.032	1645.32
851.211	1726.11
851.39	1669.54
851.569	1626.14
851.748	1657.14
851.927	1722.04
852.107	1679.61
852.286	1661.2
852.465	1633.31
852.644	1691.04
852.823	1701.7
853.002	1661.4
853.181	1671.86
853.359	1693.95
853.538	1596.49
853.717	1640.47
853.896	1561.23
854.075	1475.79
854.254	1492.06
854.433	1413.21
854.611	1463.2
854.79	1408.17
854.969	1465.13
855.148	1493.81
855.327	1471.53
855.505	1507.95
855.684	1496.52
855.863	1531.59
856.041	1509.31
856.22	1562.2
856.399	1529.46
856.577	1618
856.756	1594.36
856.934	1713.32
857.113	1680
857.291	1605.41
857.47	1554.84
857.648	1660.43
857.827	1643.96
858.005	1653.26
858.184	1576.34
858.362	1654.23
858.541	1589.71
858.719	1598.24
858.898	1568.21
859.076	1580.22
859.254	1662.17
859.433	1573.82
859.611	1560.46
859.789	1541.08
859.967	1603.66
860.146	1626.91
860.324	1545.93
860.502	1561.81
860.68	1510.08
860.859	1527.71
861.037	1551.93
861.215	1554.45
861.393	1546.51
861.571	1553.68
861.749	1526.94
861.927	1512.02
862.105	1541.47
862.283	1523.06
862.461	1519.77
862.639	1512.21
862.817	1525.19
862.995	1543.99
863.173	1501.94
863.351	1502.53
863.529	1523.64
863.707	1564.53
863.885	1536.43
864.063	1467.65
864.241	1489.74
864.418	1553.87
864.596	1476.95
864.774	1432.97
864.952	1466.49
865.129	1499.04
865.307	1438.59
865.485	1425.41
865.663	1435.3
865.84	1376.78
866.018	1399.84
866.196	1279.52
866.373	1295.41
866.551	1269.64
866.728	1190.98
866.906	1255.3
867.084	1317.69
867.261	1310.33
867.439	1318.85
867.616	1345.98
867.794	1338.23
867.971	1366.52
868.149	1334.16
868.326	1389.57
868.503	1380.27
868.681	1379.69
868.858	1338.62
869.035	1337.26
869.213	1390.54
869.39	1361.28
869.567	1401
869.745	1349.47
869.922	1364.38
870.099	1378.33
870.276	1369.03
870.454	1391.51
870.631	1368.45
870.808	1363.03
870.985	1384.92
871.162	1416.7
871.339	1369.03
871.517	1321.37
871.694	1300.06
871.871	1350.43
872.048	1337.84
872.225	1341.33
872.402	1329.7
872.579	1305.68
872.756	1355.28
872.933	1272.16
873.11	1301.61
873.287	1335.9
873.463	1289.79
873.64	1297.35
873.817	1314.4
873.994	1293.28
874.171	1268.87
874.348	1312.07
874.524	1213.46
874.701	1281.27
874.878	1213.65
875.055	1281.65
875.231	1220.04
875.408	1289.6
875.585	1222.95
875.762	1259.76
875.938	1225.08
876.115	1238.25
876.291	1242.9
876.468	1201.25
876.645	1212.1
876.821	1252.2
876.998	1218.88
877.174	1252.4
877.351	1228.57
877.527	1200.86
877.704	1205.71
877.88	1209
878.057	1231.28
878.233	1265.19
878.409	1197.37
878.586	1226.44
878.762	1181.87
878.938	1204.74
879.115	1137.7
879.291	1188.07
879.467	1152.62
879.644	1133.63
879.82	1201.44
879.996	1195.63
880.172	1127.43
880.349	1162.69
880.525	1190.21
880.701	1098.56
880.877	1077.83
881.053	1191.95
881.229	1155.52
881.405	1176.64
881.581	1126.66
881.757	1148.74
881.933	1163.86
882.109	1155.33
882.285	1159.4
882.461	1098.76
882.637	1148.16
882.813	1133.44
882.989	1113.29
883.165	1168.31
883.341	1117.74
883.517	1164.24
883.693	1168.89
883.869	1167.15
884.044	1119.49
884.22	1131.11
884.396	1180.32
884.572	1175.87
884.747	1190.79
884.923	1139.44
885.099	1177.22
885.275	1162.5
885.45	1130.92
885.626	1137.12
885.801	1075.7
885.977	1159.4
886.153	1099.14
886.328	1132.27
886.504	1116.97
886.679	1140.41
886.855	1125.11
887.03	1133.44
887.206	1142.54
887.381	1132.47
887.557	1154.17
887.732	1138.28
887.908	1120.46
888.083	1163.47
888.258	1121.04
888.434	1117.74
888.609	1161.34
888.784	1158.43
888.96	1118.13
889.135	1148.94
889.31	1123.36
889.485	1149.13
889.661	1142.35
889.836	1139.44
890.011	1134.6
890.186	1134.99
890.361	1097.59
890.537	1143.71
890.712	1163.08
890.887	1171.22
891.062	1139.83
891.237	1171.41
891.412	1097.59
891.587	1139.64
891.762	1162.11
891.937	1164.82
892.112	1085.58
892.287	1092.75
892.462	1082.09
892.637	1030.95
892.812	1029.98
892.987	1010.21
893.161	1021.26
893.336	1040.05
893.511	1030.75
893.686	1043.73
893.861	1024.36
894.035	1010.99
894.21	1043.15
894.385	991.42
894.56	1021.26
894.734	953.64
894.909	932.72
895.084	925.16
895.258	899.78
895.433	905.78
895.608	879.24
895.782	838.36
895.957	847.27
896.131	867.23
896.306	771.71
896.48	824.6
896.655	812.98
896.829	727.15
897.004	708.36
897.178	766.09
897.353	711.84
897.527	785.47
897.701	788.37
897.876	715.72
898.05	780.62
898.224	784.69
898.399	794.19
898.573	739.36
898.747	641.51
898.921	694.02
899.096	618.07
899.27	595.79
899.444	613.61
899.618	660.89
899.792	632.02
899.967	666.12
900.141	678.91
900.315	643.84
900.489	649.07
900.663	652.56
900.837	623.88
901.011	638.99
901.185	657.79
901.359	662.24
901.533	682.2
901.707	664.57
901.881	641.13
902.055	593.85
902.229	642.29
902.403	692.27
902.576	670.96
902.75	657.79
902.924	749.04
903.098	709.91
903.272	751.17
903.446	789.92
903.619	763.57
903.793	831
903.967	800.77
904.14	851.92
904.314	826.54
904.488	833.9
904.661	823.64
904.835	835.84
905.009	832.16
905.182	882.34
905.356	846.89
905.529	825.57
905.703	796.9
905.876	798.25
906.05	752.34
906.223	748.66
906.397	678.13
906.57	681.62
906.744	662.44
906.917	654.3
907.09	661.86
907.264	643.84
907.437	627.18
907.61	578.55
907.784	630.86
907.957	611.48
908.13	565.18
908.304	625.63
908.477	559.17
908.65	609.93
908.823	532.63
908.996	644.61
909.17	549.29
909.343	575.83
909.516	598.11
909.689	585.71
909.862	537.47
910.035	562.85
910.208	537.08
910.381	527.2
910.554	631.44
910.727	563.63
910.9	540.57
911.073	523.52
911.246	621.94
911.419	616.91
911.592	602.76
911.765	567.5
911.938	540.38
912.11	584.55
912.283	577.38
912.456	603.15
912.629	572.73
912.802	558.59
912.974	515.19
913.147	453.19
913.32	389.84
913.493	460.36
913.665	470.05
913.838	515.38
914.01	522.94
914.183	503.18
914.356	495.62
914.528	547.74
914.701	547.74
914.873	543.48
915.046	486.13
915.218	438.27
915.391	391.19
915.563	411.34
915.736	482.64
915.908	523.13
916.081	495.04
916.253	458.81
916.425	458.23
916.598	506.67
916.77	467.72
916.942	474.89
917.115	398.17
917.287	466.37
917.459	428
917.632	432.46
917.804	360.19
917.976	460.55
918.148	478.57
918.32	459.58
918.493	506.08
918.665	528.36
918.837	494.85
919.009	543.09
919.181	565.37
919.353	517.32
919.525	510.93
919.697	501.24
919.869	504.53
920.041	562.08
920.213	648.88
920.385	552.58
920.557	534.76
920.729	549.87
920.901	550.26
921.073	523.71
921.244	527.4
921.416	554.33
921.588	520.42
921.76	520.42
921.932	544.45
922.103	553.94
922.275	521.78
922.447	518.29
922.619	431.68
922.79	512.48
922.962	505.12
923.134	504.15
923.305	485.55
923.477	430.72
923.648	447.18
923.82	473.92
923.991	421.22
924.163	433.62
924.335	450.48
924.506	431.88
924.677	478.57
924.849	443.12
925.02	475.08
925.192	445.05
925.363	454.35
925.535	448.73
925.706	415.99
925.877	474.5
926.049	424.9
926.22	460.94
926.391	432.65
926.562	486.32
926.734	441.37
926.905	464.62
927.076	378.4
927.247	422.77
927.419	381.31
927.59	392.55
927.761	378.02
927.932	360.77
928.103	342.75
928.274	307.49
928.445	319.7
928.616	297.61
928.787	293.93
928.958	321.44
929.129	333.26
929.3	288.7
929.471	253.05
929.642	191.05
929.813	176.13
929.984	258.86
930.155	198.8
930.326	243.17
930.496	180.39
930.667	146.3
930.838	205.19
931.009	127.5
931.18	169.35
931.35	179.23
931.521	154.43
931.692	133.7
931.863	70.35
932.033	135.25
932.204	143.78
932.374	120.33
932.545	64.34
932.716	157.53
932.886	139.13
933.057	71.9
933.227	81.97
933.398	125.18
933.568	41.28
933.739	31.4
933.909	38.77
934.08	103.86
934.25	11.06
934.421	33.92
934.591	70.15
934.761	23.46
934.932	16.48
935.102	60.08
935.272	54.46
935.443	27.92
935.613	39.54
935.783	60.27
935.953	25.98
936.123	187.56
936.294	24.82
936.464	23.85
936.634	47.48
936.804	-2.89
936.974	-0.37
937.144	70.93
937.314	43.03
937.484	31.21
937.655	14.35
937.825	64.53
937.995	41.67
938.165	65.31
938.334	31.02
938.504	53.1
938.674	66.28
938.844	73.64
939.014	113.55
939.184	100.18
939.354	167.8
939.524	152.69
939.694	118.2
939.863	97.66
940.033	149.01
940.203	151.33
940.373	137.77
940.542	122.66
940.712	120.72
940.882	149.78
941.051	133.51
941.221	137
941.391	136.03
941.56	91.27
941.73	54.27
941.899	198.22
942.069	81.97
942.238	138.93
942.408	60.66
942.577	118.59
942.747	84.1
942.916	44.38
943.086	62.79
943.255	121.3
943.425	94.76
943.594	77.13
943.763	-9.09
943.933	61.82
944.102	-2.89
944.271	56.59
944.441	83.71
944.61	49.62
944.779	79.07
944.948	163.93
945.117	33.53
945.287	65.5
945.456	2.92
945.625	29.66
945.794	84.1
945.963	47.48
946.132	70.54
946.301	68.41
946.47	99.8
946.639	16.29
946.808	73.64
946.977	83.33
947.146	107.74
947.315	60.47
947.484	89.33
947.653	29.08
947.822	46.71
947.991	51.75
948.16	122.27
948.329	94.76
948.498	65.12
948.666	54.65
948.835	97.86
949.004	46.13
949.173	59.5
949.341	75.97
949.51	65.5
949.679	105.8
949.847	84.68
950.016	139.32
950.185	135.64
950.353	68.22
950.522	75.77
950.69	133.12
950.859	46.9
951.028	101.15
951.196	91.27
951.365	46.13
951.533	57.95
951.701	119.75
951.87	83.13
952.038	18.62
952.207	50.97
952.375	131.96
952.543	60.85
952.712	79.45
952.88	41.67
953.048	100.18
953.217	84.49
953.385	71.9
953.553	117.23
953.721	48.26
953.89	88.75
954.058	46.71
954.226	29.47
954.394	60.66
954.562	39.93
954.73	75.38
954.898	76.35
955.067	105.03
955.235	37.02
955.403	112.2
955.571	128.47
955.739	96.7
955.907	45.16
956.075	29.47
956.243	57.75
956.41	84.68
956.578	32.18
956.746	52.13
956.914	60.85
957.082	103.86
957.25	86.04
957.418	70.73
957.585	66.47
957.753	112.39
957.921	47.48
958.089	78.48
958.256	104.45
958.424	103.28
958.592	95.15
958.759	45.74
958.927	75.19
959.095	44.38
959.262	64.15
959.43	103.09
959.597	51.17
959.765	57.95
959.932	66.47
960.1	89.53
960.267	67.83
960.435	83.52
960.602	110.65
960.77	85.26
960.937	49.42
961.104	92.43
961.272	33.53
961.439	67.83
961.606	82.94
961.774	88.75
961.941	80.81
962.108	82.55
962.275	108.9
962.443	128.86
962.61	99.8
962.777	165.86
962.944	102.9
963.111	106.58
963.278	94.37
963.446	103.48
963.613	87.01
963.78	118.59
963.947	128.47
964.114	118.2
964.281	146.3
964.448	108.9
964.615	62.4
964.782	118.2
964.949	109.87
965.116	131.57
965.282	135.06
965.449	97.47
965.616	73.45
965.783	129.83
965.95	103.09
966.117	63.57
966.283	103.67
966.45	89.91
966.617	109.68
966.784	126.92
966.95	145.91
967.117	137.77
967.284	94.76
967.45	99.02
967.617	142.42
967.784	156.76
967.95	159.86
968.117	114.91
968.283	168.58
968.45	206.36
968.616	119.17
968.783	179.62
968.949	137.38
969.116	148.43
969.282	134.48
969.449	151.33
969.615	134.28
969.781	91.66
969.948	116.46
970.114	72.87
970.28	160.83
970.447	130.6
970.613	149.78
970.779	136.61
970.945	147.65
971.112	137.58
971.278	144.55
971.444	132.15
971.61	176.33
971.776	112.78
971.942	138.55
972.108	135.25
972.275	114.33
972.441	127.7
972.607	172.06
972.773	115.3
972.939	137.77
973.105	144.55
973.271	106.38
973.437	104.45
973.602	87.98
973.768	112.97
973.934	113.75
974.1	130.02
974.266	59.11
974.432	141.26
974.598	79.45
974.763	106.77
974.929	85.46
975.095	145.71
975.261	63.57
975.426	69.38
975.592	89.33
975.758	151.14
975.923	62.79
976.089	74.03
976.255	113.55
976.42	118.78
976.586	101.93
976.751	134.48
976.917	193.76
977.082	144.94
977.248	70.15
977.413	17.84
977.579	85.26
977.744	102.9
977.91	81.78
978.075	57.37
978.24	112.58
978.406	102.31
978.571	90.3
978.736	74.42
978.902	137.38
979.067	84.3
979.232	56.78
979.397	101.15
979.563	152.3
979.728	73.06
979.893	74.42
980.058	71.12
980.223	121.69
980.388	132.15
980.554	95.15
980.719	93.79
980.884	124.01
981.049	153.08
981.214	80.23
981.379	105.22
981.544	84.88
981.709	107.35
981.874	87.59
982.039	108.51
982.204	110.06
982.368	109.48
982.533	72.28
982.698	122.66
982.863	137.77
983.028	92.82
983.193	83.13
983.357	90.3
983.522	93.79
983.687	86.23
983.852	80.81
984.016	93.4
984.181	106.96
984.346	115.1
984.51	131.38
984.675	90.5
984.839	120.91
985.004	84.3
985.168	117.04
985.333	118.98
985.498	109.1
985.662	128.66
985.827	100.76
985.991	101.73
986.155	87.78
986.32	134.67
986.484	162.76
986.649	126.34
986.813	59.3
986.977	104.06
987.142	116.46
987.306	74.03
987.47	82.36
987.634	118.59
987.799	131.18
987.963	96.31
988.127	125.56
988.291	164.9
988.455	127.5
988.62	120.33
988.784	147.07
988.948	138.74
989.112	57.37
989.276	117.81
989.44	102.7
989.604	89.14
989.768	73.06
989.932	157.92
990.096	80.42
990.26	83.91
990.424	52.13
990.588	116.46
990.752	137
990.915	137.19
991.079	56.59
991.243	83.13
991.407	109.48
991.571	76.35
991.734	118.98
991.898	111.61
992.062	173.03
992.226	72.28
992.389	72.09
992.553	58.14
992.717	58.33
992.88	100.57
993.044	97.28
993.207	79.84
993.371	143.2
993.535	126.53
993.698	88.56
993.862	112.39
994.025	112.39
994.189	110.06
994.352	111.61
994.515	80.42
994.679	133.9
994.842	87.2
995.006	136.22
995.169	56.98
995.332	61.82
995.496	108.32
995.659	39.35
995.822	74.61
995.985	81.78
996.149	117.23
996.312	83.33
996.475	150.56
996.638	71.32
996.801	108.71
996.964	158.5
997.128	107.55
997.291	84.3
997.454	90.11
997.617	49.81
997.78	110.65
997.943	65.5
998.106	100.57
998.269	86.23
998.432	69.38
998.595	118.59
998.758	21.13
998.92	59.88
999.083	38.77
999.246	45.16
999.409	65.5
999.572	35.86
999.735	69.77
999.897	64.53
1000.06	45.93
1000.223	59.88
1000.386	56.01
1000.548	90.88
1000.711	95.15
1000.874	87.2
1001.036	9.51
1001.199	109.29
1001.361	50
1001.524	52.52
1001.687	88.75
1001.849	45.74
1002.012	70.54
1002.174	75.38
1002.337	91.08
1002.499	60.27
1002.661	108.51
1002.824	19.78
1002.986	47.87
1003.149	81.97
1003.311	66.86
1003.473	107.16
1003.636	55.82
1003.798	70.35
1003.96	107.35
1004.123	44.97
1004.285	44.19
1004.447	49.81
1004.609	67.83
1004.771	138.93
1004.933	16.68
1005.096	16.68
1005.258	27.14
1005.42	36.83
1005.582	73.83
1005.744	64.92
1005.906	-4.25
1006.068	83.13
1006.23	38.96
1006.392	18.62
1006.554	10.09
1006.716	89.72
1006.878	68.02
1007.04	6.6
1007.202	35.08
1007.363	46.9
1007.525	57.17
1007.687	79.07
1007.849	104.83
1008.011	2.92
1008.172	49.23
1008.334	47.87
1008.496	69.18
1008.658	1.57
1008.819	35.08
1008.981	20.94
1009.143	47.1
1009.304	37.02
1009.466	63.18
1009.627	90.69
1009.789	117.43
1009.95	46.9
1010.112	25.4
1010.273	68.22
1010.435	54.07
1010.596	24.04
1010.758	37.6
1010.919	26.95
1011.081	31.6
1011.242	39.73
1011.403	75.38
1011.565	56.2
1011.726	54.27
1011.887	7.77
1012.049	46.9
1012.21	58.14
1012.371	69.77
1012.532	-5.22
1012.693	59.11
1012.855	39.93
1013.016	51.94
1013.177	63.37
1013.338	44
1013.499	104.64
1013.66	52.91
1013.821	71.32
1013.982	51.36
1014.143	48.26
1014.304	36.44
1014.465	63.57
1014.626	86.23
1014.787	47.1
1014.948	105.03
1015.109	-31.95
1015.27	72.67
1015.431	27.72
1015.592	13.19
1015.752	80.61
1015.913	48.07
1016.074	38.57
1016.235	37.02
1016.395	47.29
1016.556	18.03
1016.717	35.67
1016.877	80.03
1017.038	10.87
1017.199	29.85
1017.359	56.4
1017.52	53.68
1017.681	39.15
1017.841	9.7
1018.002	34.31
1018.162	19.39
1018.323	73.06
1018.483	63.57
1018.644	5.44
1018.804	-17.81
1018.964	-9.86
1019.125	17.65
1019.285	14.93
1019.446	8.73
1019.606	-1.34
1019.766	-18.78
1019.926	52.33
1020.087	43.03
1020.247	-6.38
1020.407	31.6
1020.567	69.57
1020.728	22.88
1020.888	21.33
1021.048	17.65
1021.208	10.87
1021.368	1.76
1021.528	63.18
1021.688	43.03
1021.848	43.22
1022.008	28.5
1022.168	39.54
1022.328	16.87
1022.488	45.93
1022.648	16.87
1022.808	49.81
1022.968	67.44
1023.128	-8.12
1023.288	36.05
1023.448	23.07
1023.608	70.35
1023.767	51.94
1023.927	6.41
1024.087	-2.89
1024.247	-4.44
1024.406	26.95
1024.566	7.38
1024.726	-1.92
1024.885	33.15
1025.045	48.26
1025.205	38.38
1025.364	18.62
1025.524	34.7
1025.683	18.62
1025.843	53.1
1026.003	-3.86
1026.162	98.25
1026.321	70.54
1026.481	36.25
1026.64	-8.7
1026.8	26.56
1026.959	6.41
1027.119	25.4
1027.278	3.5
1027.437	-28.66
1027.597	39.93
1027.756	19.97
1027.915	48.84
1028.074	31.98
1028.234	-10.64
1028.393	14.35
1028.552	29.27
1028.711	-48.81
1028.87	59.5
1029.03	-4.63
1029.189	37.99
1029.348	-34.08
1029.507	13.38
1029.666	-10.64
1029.825	-3.47
1029.984	-6.38
1030.143	11.64
1030.302	0.6
1030.461	-43.77
1030.62	-5.8
1030.779	52.13
1030.938	-16.45
1031.097	-2.89
1031.255	56.01
1031.414	59.69
1031.573	65.31
1031.732	-40.28
1031.891	3.12
1032.049	60.47
1032.208	45.55
1032.367	-28.85
1032.525	0.98
1032.684	13.97
1032.843	-16.06
1033.001	-15.29
1033.16	151.72
1033.319	37.99
1033.477	70.54
1033.636	0.98
1033.794	-9.86
1033.953	48.65
1034.111	55.43
1034.27	1.18
1034.428	38.18
1034.587	2.92
1034.745	15.13
1034.903	13
1035.062	36.83
1035.22	-7.15
1035.378	34.5
1035.537	-5.99
1035.695	26.17
1035.853	7.96
1036.011	66.47
1036.17	30.05
1036.328	-54.62
1036.486	13.58
1036.644	18.81
1036.802	-28.85
1036.96	9.51
1037.119	-29.43
1037.277	-13.74
1037.435	-7.15
1037.593	-10.64
1037.751	-4.44
1037.909	32.95
1038.067	32.95
