Data from oakcork_FLMT105791__201__17-32-14-056.txt Node

Date: Mon Mar 20 17:32:14 GMT 2023
User: antho
Spectrometer: FLMT10579
Trigger mode: 0
Integration Time (sec): 1.000000E-1
Scans to average: 10
Electric dark correction enabled: true
Nonlinearity correction enabled: false
Boxcar width: 0
XAxis mode: Wavelengths
Number of Pixels in Spectrum: 3648
>>>>>Begin Spectral Data<<<<<
345.248	-145.25
345.464	-145.25
345.681	-145.25
345.898	-157.84
346.114	-151.45
346.331	-77.43
346.548	20.41
346.764	-11.17
346.981	5.1
347.197	-14.85
347.414	38.04
347.631	-6.72
347.847	52.18
348.064	14.98
348.28	13.05
348.497	-51.67
348.713	18.08
348.93	24.67
349.146	16.92
349.363	-22.02
349.579	24.67
349.796	-8.27
350.012	-6.33
350.229	46.18
350.445	16.53
350.661	12.08
350.878	-6.52
351.094	26.41
351.311	-7.3
351.527	14.4
351.743	-5.36
351.96	35.71
352.176	31.45
352.392	31.65
352.609	14.01
352.825	-8.27
353.041	7.43
353.257	-6.91
353.474	4.71
353.69	35.71
353.906	12.46
354.122	-28.42
354.339	44.24
354.555	9.75
354.771	-5.94
354.987	46.76
355.203	49.28
355.42	-7.1
355.636	-6.14
355.852	-7.88
356.068	17.89
356.284	-16.21
356.5	40.36
356.716	16.34
356.932	10.14
357.148	30.87
357.364	-24.74
357.58	30.87
357.796	69.23
358.012	60.51
358.228	23.12
358.444	-68.52
358.66	18.66
358.876	28.93
359.092	-24.35
359.308	33.78
359.524	45.01
359.74	-4.78
359.956	15.95
360.172	9.36
360.388	43.27
360.604	3.36
360.819	69.62
361.035	9.75
361.251	28.16
361.467	-21.25
361.683	27.58
361.898	23.51
362.114	35.33
362.33	2.2
362.546	29.13
362.762	19.44
362.977	15.18
363.193	-26.87
363.409	50.44
363.624	-6.91
363.84	-29.38
364.056	-20.47
364.271	31.26
364.487	34.36
364.703	-4.2
364.918	-9.24
365.134	8.2
365.35	9.17
365.565	111.08
365.781	17.7
365.996	23.31
366.212	77.37
366.427	33
366.643	-6.14
366.858	-0.71
367.074	-19.5
367.289	60.71
367.505	98.49
367.72	-50.89
367.936	14.21
368.151	36.1
368.367	47.34
368.582	18.47
368.798	-10.01
369.013	70.01
369.228	31.65
369.444	29.13
369.659	52.96
369.874	19.25
370.09	70.01
370.305	-53.6
370.52	-0.52
370.736	70.78
370.951	14.4
371.166	82.79
371.381	79.89
371.597	34.75
371.812	-23.77
372.027	11.11
372.242	17.5
372.458	54.7
372.673	-8.46
372.888	3.16
373.103	27.77
373.318	119.8
373.533	34.55
373.749	30.48
373.964	-53.8
374.179	49.28
374.394	-20.86
374.609	53.15
374.824	-23.38
375.039	38.43
375.254	8.59
375.469	87.25
375.684	0.65
375.899	52.76
376.114	20.8
376.329	50.25
376.544	41.14
376.759	37.46
376.974	-9.82
377.189	25.06
377.404	21.18
377.619	39.59
377.834	-13.69
378.049	-6.52
378.264	-16.99
378.478	38.43
378.693	7.43
378.908	34.55
379.123	3.75
379.338	44.63
379.553	9.95
379.767	33.78
379.982	31.06
380.197	54.51
380.412	33.97
380.626	44.24
380.841	106.82
381.056	10.91
381.271	65.55
381.485	20.6
381.7	-16.99
381.915	36.3
382.129	7.43
382.344	37.85
382.559	20.6
382.773	51.41
382.988	-32.48
383.202	36.68
383.417	23.31
383.632	132.59
383.846	9.95
384.061	22.54
384.275	-2.45
384.49	30.48
384.704	32.61
384.919	29.9
385.133	27.38
385.348	63.23
385.562	-18.15
385.777	64.19
385.991	29.13
386.206	2.58
386.42	-1.49
386.634	50.63
386.849	43.08
387.063	70.39
387.277	20.8
387.492	40.95
387.706	-8.27
387.92	14.6
388.135	54.12
388.349	40.36
388.563	41.14
388.778	27.96
388.992	61.87
389.206	63.23
389.42	88.03
389.635	39.01
389.849	77.18
390.063	81.83
390.277	54.7
390.491	93.84
390.706	50.05
390.92	66.91
391.134	58.38
391.348	56.45
391.562	4.52
391.776	48.31
391.99	19.83
392.205	50.63
392.419	-3.42
392.633	28.35
392.847	90.74
393.061	3.75
393.275	96.74
393.489	52.96
393.703	62.64
393.917	33.39
394.131	20.99
394.345	69.43
394.559	52.38
394.773	22.15
394.986	46.37
395.2	44.24
395.414	88.8
395.628	13.82
395.842	72.72
396.056	38.62
396.27	7.43
396.484	65.94
396.697	56.06
396.911	63.23
397.125	47.53
397.339	60.13
397.553	47.15
397.766	107.98
397.98	88.22
398.194	99.46
398.408	27.96
398.621	91.32
398.835	102.17
399.049	97.91
399.262	132.98
399.476	126.78
399.69	89.77
399.903	165.91
400.117	91.13
400.331	105.46
400.544	59.93
400.758	191.68
400.971	125.42
401.185	153.32
401.398	89.96
401.612	165.91
401.826	137.43
402.039	133.94
402.253	101.78
402.466	188
402.68	119.99
402.893	144.99
403.106	133.56
403.32	112.44
403.533	153.51
403.747	142.47
403.96	129.29
404.174	150.61
404.387	89.19
404.6	120.96
404.814	153.51
405.027	140.92
405.24	132.01
405.454	124.64
405.667	181.22
405.88	64
406.094	140.53
406.307	175.02
406.52	165.14
406.733	101.39
406.947	92.48
407.16	180.83
407.373	192.26
407.586	129.68
407.799	110.69
408.012	165.33
408.226	166.3
408.439	193.42
408.652	121.16
408.865	184.32
409.078	194.01
409.291	183.16
409.504	154.09
409.717	224.62
409.93	197.11
410.143	157.19
410.357	91.9
410.57	94.81
410.783	114.76
410.996	161.65
411.209	173.66
411.421	246.51
411.634	203.5
411.847	171.53
412.06	209.89
412.273	209.7
412.486	206.21
412.699	279.25
412.912	192.46
413.125	244.77
413.338	164.75
413.55	238.18
413.763	172.31
413.976	201.56
414.189	194.97
414.402	205.44
414.615	253.87
414.827	167.07
415.04	228.88
415.253	244.96
415.466	252.13
415.678	274.8
415.891	216.48
416.104	191.1
416.316	205.05
416.529	228.88
416.742	253.68
416.954	266.27
417.167	208.34
417.38	219.39
417.592	262.2
417.805	220.36
418.017	166.11
418.23	275.57
418.442	194.97
418.655	210.09
418.868	202.53
419.08	281.97
419.293	268.6
419.505	241.47
419.718	238.57
419.93	293.79
420.142	246.32
420.355	297.85
420.567	242.44
420.78	274.99
420.992	236.82
421.205	341.06
421.417	235.08
421.629	277.12
421.842	241.86
422.054	275.38
422.266	277.32
422.479	331.76
422.691	241.67
422.903	264.92
423.115	221.91
423.328	257.55
423.54	287.78
423.752	269.95
423.964	215.51
424.177	328.08
424.389	271.7
424.601	379.81
424.813	285.07
425.025	312.77
425.238	307.54
425.45	299.21
425.662	283.9
425.874	624.51
426.086	278.29
426.298	325.95
426.51	280.61
426.722	313.94
426.934	286.62
427.146	322.85
427.358	277.9
427.57	326.72
427.782	252.9
427.994	272.47
428.206	255.42
428.418	279.84
428.63	320.33
428.842	353.85
429.054	301.34
429.266	342.22
429.478	283.71
429.69	296.5
429.902	219.19
430.114	307.15
430.325	245.93
430.537	206.6
430.749	229.85
430.961	164.94
431.173	213.38
431.384	254.65
431.596	180.83
431.808	270.54
432.02	332.92
432.231	391.63
432.443	413.71
432.655	388.72
432.867	309.67
433.078	359.08
433.29	449.36
433.502	456.92
433.713	423.4
433.925	431.54
434.136	390.27
434.348	333.5
434.56	298.24
434.771	458.28
434.983	319.17
435.194	372.64
435.406	398.22
435.617	455.76
435.829	457.11
436.04	445.3
436.252	485.6
436.463	508.26
436.675	481.33
436.886	519.31
437.098	465.25
437.309	525.12
437.521	480.36
437.732	469.32
437.943	459.83
438.155	470.87
438.366	414.68
438.578	529.38
438.789	453.43
439	431.73
439.211	399.57
439.423	461.76
439.634	472.81
439.845	495.67
440.057	498.77
440.268	544.69
440.479	482.11
440.69	507.49
440.902	488.31
441.113	492.96
441.324	481.33
441.535	527.83
441.746	579.37
441.957	501.87
442.168	535.39
442.38	587.31
442.591	563.29
442.802	550.11
443.013	561.54
443.224	605.14
443.435	555.34
443.646	553.41
443.857	541.01
444.068	565.61
444.279	531.71
444.49	668.11
444.701	589.25
444.912	700.85
445.123	637.88
445.334	624.9
445.545	600.87
445.756	606.11
445.967	543.91
446.178	585.57
446.388	580.14
446.599	589.44
446.81	591.19
447.021	588.47
447.232	642.72
447.443	667.33
447.653	629.16
447.864	672.75
448.075	657.06
448.286	682.05
448.496	664.04
448.707	701.24
448.918	629.36
449.129	720.42
449.339	640.98
449.55	687.29
449.761	630.13
449.971	696.78
450.182	665.01
450.393	706.47
450.603	705.3
450.814	775.25
451.024	699.88
451.235	767.11
451.446	802.37
451.656	800.05
451.867	699.3
452.077	731.85
452.288	790.55
452.498	768.27
452.709	704.34
452.919	738.82
453.13	650.47
453.34	713.05
453.55	628.19
453.761	727.2
453.971	676.44
454.182	758.58
454.392	697.55
454.602	815.35
454.813	746.19
455.023	761.88
455.233	675.08
455.444	713.64
455.654	668.11
455.864	709.37
456.075	717.32
456.285	732.62
456.495	754.52
456.705	782.03
456.916	792.3
457.126	814.19
457.336	759.55
457.546	717.9
457.756	758.78
457.967	817.1
458.177	783.77
458.387	765.37
458.597	724.49
458.807	767.88
459.017	728.36
459.227	746.19
459.437	759.17
459.647	838.22
459.857	768.47
460.068	781.64
460.278	833.95
460.488	832.21
460.698	838.02
460.908	788.42
461.117	781.06
461.327	801.4
461.537	863.01
461.747	846.35
461.957	843.64
462.167	940.9
462.377	857.59
462.587	873.28
462.797	907.58
463.007	887.43
463.216	894.4
463.426	950.59
463.636	888.78
463.846	852.55
464.056	826.78
464.265	908.16
464.475	844.22
464.685	909.9
464.895	899.05
465.104	863.21
465.314	962.79
465.524	896.92
465.733	860.69
465.943	955.43
466.153	977.13
466.362	979.07
466.572	944.39
466.782	889.36
466.991	944.39
467.201	959.69
467.41	852.16
467.62	941.68
467.829	939.54
468.039	984.69
468.249	961.24
468.458	1004.84
468.668	979.07
468.877	1022.27
469.086	994.57
469.296	1043.39
469.505	999.61
469.715	1119.15
469.924	1031.38
470.134	1072.07
470.343	1063.93
470.552	990.5
470.762	1007.16
470.971	992.63
471.18	1018.98
471.39	1032.93
471.599	1033.32
471.808	1077.11
472.018	1099.77
472.227	1156.35
472.436	1173.01
472.645	1161.39
472.855	1097.64
473.064	1253.42
473.273	1175.92
473.482	1182.12
473.691	1196.07
473.901	1179.21
474.11	1130.58
474.319	1285.58
474.528	1203.62
474.737	1284.22
474.946	1229
475.155	1255.74
475.364	1289.84
475.573	1272.98
475.783	1273.57
475.992	1285.19
476.201	1291.97
476.41	1272.98
476.619	1210.79
476.828	1303.79
477.037	1258.45
477.245	1283.45
477.454	1323.16
477.663	1359.98
477.872	1363.85
478.081	1445.81
478.29	1351.26
478.499	1506.84
478.708	1394.27
478.917	1483.78
479.125	1414.81
479.334	1444.06
479.543	1427.21
479.752	1513.81
479.961	1463.82
480.169	1501.8
480.378	1496.57
480.587	1611.27
480.796	1550.43
481.004	1541.32
481.213	1570.58
481.422	1602.94
481.63	1570
481.839	1638.97
482.048	1708.53
482.256	1656.6
482.465	1666.87
482.674	1677.72
482.882	1672.68
483.091	1729.06
483.299	1669
483.508	1726.35
483.716	1691.28
483.925	1730.42
484.134	1655.83
484.342	1702.91
484.551	1755.41
484.759	1747.08
484.967	1790.1
485.176	1786.22
485.384	1774.6
485.593	1779.25
485.801	1703.1
486.01	1671.13
486.218	1563.99
486.426	1503.74
486.635	1475.84
486.843	1516.14
487.051	1564.77
487.26	1612.24
487.468	1657.18
487.676	1709.5
487.885	1735.46
488.093	1761.42
488.301	1805.98
488.509	1836.98
488.717	1889.1
488.926	1859.26
489.134	1834.27
489.342	1876.12
489.55	1825.55
489.758	1901.31
489.967	1933.66
490.175	2037.12
490.383	2017.94
490.591	2125.47
490.799	2006.7
491.007	2072.97
491.215	2040.22
491.423	2010.58
491.631	1986.94
491.839	2035.96
492.047	2079.75
492.255	1954.39
492.463	1929.01
492.671	1930.95
492.879	2049.91
493.087	2011.55
493.295	2062.12
493.503	2101.64
493.711	2136.71
493.919	2169.45
494.127	2160.73
494.334	2176.62
494.542	2086.14
494.75	2213.43
494.958	2170.42
495.166	2270.78
495.374	2243.85
495.581	2260.32
495.789	2234.75
495.997	2313.02
496.205	2165.38
496.412	2179.72
496.62	2241.91
496.828	2252.96
497.035	2237.85
497.243	2330.84
497.451	2258.58
497.658	2309.92
497.866	2262.84
498.074	2337.24
498.281	2220.41
498.489	2314.96
498.696	2243.46
498.904	2194.45
499.112	2210.72
499.319	2323.87
499.527	2302.94
499.734	2378.7
499.942	2245.4
500.149	2327.36
500.357	2304.88
500.564	2286.86
500.771	2237.46
500.979	2204.91
501.186	2173.71
501.394	2265.36
501.601	2178.56
501.808	2227.19
502.016	2218.28
502.223	2197.55
502.43	2227.19
502.638	2250.63
502.845	2254.51
503.052	2366.3
503.26	2270.01
503.467	2376.96
503.674	2297.13
503.881	2360.1
504.089	2345.96
504.296	2289.19
504.503	2272.53
504.71	2266.13
504.917	2282.99
505.125	2293.26
505.332	2332.01
505.539	2376.96
505.746	2461.82
505.953	2508.32
506.16	2472.28
506.367	2542.8
506.574	2522.85
506.781	2511.42
506.988	2451.35
507.195	2474.41
507.402	2450.97
507.609	2469.57
507.816	2366.88
508.023	2426.55
508.23	2365.52
508.437	2303.53
508.644	2416.48
508.851	2459.3
509.058	2474.6
509.265	2490.49
509.472	2542.42
509.679	2586.4
509.885	2547.07
510.092	2510.45
510.299	2492.82
510.506	2447.09
510.713	2534.28
510.92	2493.59
511.126	2577.1
511.333	2555.59
511.54	2571.48
511.746	2604.03
511.953	2650.53
512.16	2665.25
512.367	2567.41
512.573	2598.6
512.78	2580.2
512.987	2596.08
513.193	2543.97
513.4	2487.39
513.606	2530.98
513.813	2572.25
514.02	2546.1
514.226	2606.93
514.433	2579.23
514.639	2496.89
514.846	2542.22
515.052	2547.45
515.259	2569.73
515.465	2584.27
515.672	2585.62
515.878	2627.28
516.085	2617.98
516.291	2658.08
516.497	2618.36
516.704	2549.39
516.91	2470.54
517.117	2362.62
517.323	2299.26
517.529	2306.04
517.736	2290.54
517.942	2315.54
518.148	2382.77
518.354	2419.19
518.561	2397.69
518.767	2391.29
518.973	2421.13
519.179	2529.63
519.386	2500.95
519.592	2480.8
519.798	2494.37
520.004	2699.93
520.21	2624.76
520.417	2699.93
520.623	2693.54
520.829	2720.28
521.035	2685.4
521.241	2742.36
521.447	2735.39
521.653	2836.52
521.859	2722.79
522.065	2814.63
522.271	2899.69
522.477	2846.21
522.683	2859.39
522.889	2822.19
523.095	2733.06
523.301	2804.75
523.507	2705.94
523.713	2725.12
523.919	2743.53
524.125	2871.01
524.331	2876.44
524.537	2982.42
524.742	2928.94
524.948	2917.7
525.154	2933.59
525.36	2979.32
525.566	2866.94
525.772	3011.67
525.977	2893.1
526.183	2923.71
526.389	2976.6
526.595	2819.28
526.8	2771.04
527.006	2679.78
527.212	2684.82
527.417	2651.3
527.623	2645.88
527.829	2723.76
528.034	2793.9
528.24	2762.71
528.446	2817.15
528.651	2944.63
528.857	2965.75
529.062	3048.29
529.268	2989
529.473	3029.3
529.679	3075.61
529.884	3064.76
530.09	3036.08
530.295	3040.93
530.501	3062.63
530.706	3099.05
530.912	3030.46
531.117	3104.09
531.323	3084.52
531.528	3161.24
531.733	3165.89
531.939	3113.58
532.144	3120.36
532.35	3101.76
532.555	3104.28
532.76	3046.35
532.966	3020.58
533.171	2981.45
533.376	2936.89
533.581	2987.07
533.787	3034.34
533.992	3108.55
534.197	3044.03
534.402	3107.96
534.607	3061.46
534.813	3173.84
535.018	3107.19
535.223	3160.28
535.428	3132.96
535.633	3222.47
535.838	3280.79
536.043	3273.42
536.249	3309.46
536.454	3235.26
536.659	3265.67
536.864	3243.97
537.069	3188.37
537.274	3190.31
537.479	3195.15
537.684	3193.79
537.889	3162.6
538.094	3264.51
538.299	3178.88
538.504	3260.83
538.708	3218.21
538.913	3293.77
539.118	3227.7
539.323	3258.51
539.528	3180.62
539.733	3199.99
539.938	3237.39
540.142	3207.16
540.347	3186.04
540.552	3106.8
540.757	3054.49
540.962	3160.66
541.166	3091.88
541.371	3116.68
541.576	3123.66
541.781	3131.21
541.985	3229.44
542.19	3141.87
542.395	3322.25
542.599	3305.39
542.804	3254.44
543.008	3273.42
543.213	3297.06
543.418	3245.52
543.622	3292.02
543.827	3197.67
544.031	3394.13
544.236	3363.32
544.44	3323.02
544.645	3413.7
544.849	3305
545.054	3376.3
545.258	3451.87
545.463	3385.02
545.667	3322.64
545.872	3385.41
546.076	3352.86
546.281	3352.47
546.485	3336.78
546.689	3391.8
546.894	3384.05
547.098	3415.44
547.302	3388.9
547.507	3351.5
547.711	3439.27
547.915	3449.15
548.119	3320.12
548.324	3357.9
548.528	3445.47
548.732	3408.47
548.936	3422.61
549.141	3417.18
549.345	3379.21
549.549	3445.47
549.753	3496.62
549.957	3452.06
550.161	3470.66
550.366	3479.18
550.57	3401.88
550.774	3401.88
550.978	3450.12
551.182	3464.46
551.386	3406.72
551.59	3379.02
551.794	3398.97
551.998	3473.95
552.202	3415.63
552.406	3403.23
552.61	3481.31
552.814	3439.08
553.018	3469.5
553.222	3352.67
553.426	3385.99
553.63	3492.16
553.833	3422.61
554.037	3365.45
554.241	3449.15
554.445	3490.61
554.649	3439.47
554.853	3447.22
555.056	3467.95
555.26	3485.77
555.464	3426.29
555.668	3441.21
555.871	3493.52
556.075	3500.88
556.279	3363.13
556.483	3422.61
556.686	3409.05
556.89	3420.48
557.094	3420.09
557.297	3319.92
557.501	3364.68
557.704	3235.26
557.908	3353.44
558.112	3314.5
558.315	3440.05
558.519	3347.24
558.722	3302.29
558.926	3283.5
559.129	3214.72
559.333	3187.98
559.536	3204.06
559.74	3229.25
559.943	3233.71
560.147	3204.64
560.35	3198.83
560.553	3250.17
560.757	3199.03
560.96	3305.39
561.164	3322.05
561.367	3362.35
561.57	3281.17
561.774	3298.8
561.977	3231.38
562.18	3237.97
562.384	3317.6
562.587	3198.25
562.79	3257.54
562.993	3239.52
563.197	3269.55
563.4	3317.02
563.603	3299.97
563.806	3352.28
564.009	3238.36
564.212	3282.34
564.416	3170.16
564.619	3238.94
564.822	3160.66
565.025	3278.46
565.228	3245.14
565.431	3248.04
565.634	3119.2
565.837	3181.59
566.04	3125.4
566.243	3115.52
566.446	3014.38
566.649	3164.54
566.852	3072.31
567.055	3154.08
567.258	3171.51
567.461	3217.24
567.664	3239.91
567.867	3164.54
568.07	3158.14
568.273	3166.48
568.475	3181.01
568.678	3085.88
568.881	3109.32
569.084	3098.28
569.287	2989.58
569.489	3024.27
569.692	3072.12
569.895	3072.7
570.098	3015.93
570.3	3029.11
570.503	2929.72
570.706	2983.58
570.909	2962.27
571.111	2943.08
571.314	2888.25
571.516	2954.9
571.719	2923.71
571.922	2927.2
572.124	2938.24
572.327	3003.53
572.529	2932.43
572.732	2925.84
572.935	2997.14
573.137	3045.58
573.34	2996.75
573.542	3011.48
573.745	2987.07
573.947	2990.17
574.15	2979.7
574.352	2983.97
574.554	3033.18
574.757	2918.29
574.959	2876.82
575.162	2943.67
575.364	2891.35
575.566	3003.34
575.769	2855.12
575.971	2904.72
576.173	2765.23
576.376	2927.78
576.578	2912.86
576.78	2962.46
576.982	2834.01
577.185	2876.82
577.387	2835.17
577.589	2881.47
577.791	2849.7
577.993	2896.97
578.196	2890.77
578.398	2888.84
578.6	2861.32
578.802	2791.57
579.004	2749.34
579.206	2793.71
579.408	2828.97
579.61	2846.21
579.812	2938.24
580.014	2860.74
580.216	2871.59
580.418	2873.92
580.62	2877.02
580.822	2885.93
581.024	2874.89
581.226	2969.82
581.428	2914.02
581.63	2987.65
581.832	2899.49
582.034	2928.55
582.236	2926.04
582.438	2981.64
582.64	3023.3
582.841	3024.07
583.043	3139.93
583.245	3015.55
583.447	3045.38
583.649	3017.68
583.85	3025.43
584.052	3002.37
584.254	2939.99
584.456	3003.15
584.657	2926.62
584.859	3045
585.061	2969.05
585.262	2945.8
585.464	2922.35
585.666	2989.39
585.867	2911.89
586.069	2927.2
586.27	2918.48
586.472	2904.14
586.674	2873.72
586.875	2920.22
587.077	2935.92
587.278	2926.04
587.48	2890.58
587.681	3005.86
587.883	2933.79
588.084	2825.09
588.285	2866.17
588.487	2838.85
588.688	2810.76
588.89	2706.52
589.091	2608.48
589.292	2561.4
589.494	2501.73
589.695	2463.95
589.896	2417.45
590.098	2444.57
590.299	2494.95
590.5	2558.88
590.702	2521.1
590.903	2598.6
591.104	2671.84
591.305	2689.47
591.507	2676.88
591.708	2700.51
591.909	2672.81
592.11	2716.59
592.311	2714.85
592.512	2647.81
592.714	2607.71
592.915	2697.41
593.116	2650.14
593.317	2760.96
593.518	2682.11
593.719	2740.62
593.92	2795.26
594.121	2768.32
594.322	2724.34
594.523	2674.75
594.724	2642.78
594.925	2681.53
595.126	2636.77
595.327	2685.98
595.528	2722.41
595.729	2697.22
595.929	2667.19
596.13	2679.2
596.331	2743.53
596.532	2703.03
596.733	2759.03
596.934	2786.34
597.135	2808.62
597.335	2778.01
597.536	2727.64
597.737	2741.78
597.938	2682.49
598.138	2778.21
598.339	2715.43
598.54	2773.17
598.74	2712.14
598.941	2720.28
599.142	2760.96
599.342	2747.21
599.543	2729.96
599.744	2716.98
599.944	2731.71
600.145	2765.23
600.345	2744.11
600.546	2802.23
600.746	2726.28
600.947	2835.56
601.147	2739.65
601.348	2816.57
601.548	2720.08
601.749	2736.94
601.949	2659.63
602.15	2717.76
602.35	2719.69
602.551	2754.18
602.751	2660.21
602.951	2726.48
603.152	2638.32
603.352	2756.89
603.552	2744.88
603.753	2815.02
603.953	2794.29
604.153	2778.98
604.354	2750.89
604.554	2756.31
604.754	2798.94
604.954	2695.09
605.155	2782.86
605.355	2767.16
605.555	2783.24
605.755	2814.05
605.955	2777.62
606.155	2829.55
606.356	2764.45
606.556	2803.2
606.756	2765.42
606.956	2706.33
607.156	2806.88
607.356	2733.64
607.556	2807.85
607.756	2728.99
607.956	2799.52
608.156	2797.39
608.356	2692.96
608.556	2747.01
608.756	2722.41
608.956	2669.13
609.156	2742.17
609.356	2711.75
609.556	2636.38
609.755	2719.5
609.955	2655.76
610.155	2670.87
610.355	2671.45
610.555	2687.53
610.755	2601.7
610.954	2604.41
611.154	2664.28
611.354	2680.36
611.554	2639.1
611.753	2645.88
611.953	2564.12
612.153	2705.16
612.352	2651.69
612.552	2616.81
612.752	2529.24
612.951	2622.82
613.151	2599.96
613.351	2637.16
613.55	2593.76
613.75	2605
613.949	2526.72
614.149	2612.36
614.348	2594.53
614.548	2551.33
614.747	2500.57
614.947	2566.44
615.146	2468.6
615.346	2626.5
615.545	2587.37
615.745	2586.59
615.944	2541.06
616.144	2565.08
616.343	2543.97
616.542	2526.72
616.742	2487.39
616.941	2448.25
617.14	2387.03
617.34	2513.16
617.539	2494.56
617.738	2499.99
617.938	2573.42
618.137	2549.78
618.336	2488.17
618.535	2592.79
618.734	2542.03
618.934	2520.13
619.133	2521.68
619.332	2620.11
619.531	2485.26
619.73	2544.35
619.929	2558.69
620.128	2599.96
620.328	2615.46
620.527	2513.16
620.726	2549
620.925	2549
621.124	2527.88
621.323	2543.97
621.522	2452.32
621.721	2537.18
621.92	2476.35
622.119	2492.24
622.318	2448.45
622.517	2470.54
622.715	2465.5
622.914	2426.55
623.113	2448.25
623.312	2366.69
623.511	2454.26
623.71	2493.01
623.909	2433.53
624.107	2490.69
624.306	2375.21
624.505	2431.59
624.704	2376.76
624.902	2406.99
625.101	2447.67
625.3	2390.71
625.499	2343.63
625.697	2390.91
625.896	2330.65
626.095	2361.84
626.293	2321.35
626.492	2346.73
626.69	2356.03
626.889	2368.43
627.088	2389.36
627.286	2363.59
627.485	2320.19
627.683	2275.04
627.882	2274.46
628.08	2177.2
628.279	2167.51
628.477	2249.47
628.676	2183.6
628.874	2239.4
629.073	2138.65
629.271	2163.83
629.469	2213.24
629.668	2227
629.866	2164.8
630.065	2179.91
630.263	2206.07
630.461	2176.62
630.66	2226.8
630.858	2256.25
631.056	2257.99
631.254	2269.43
631.453	2151.43
631.651	2255.48
631.849	2256.64
632.047	2234.36
632.245	2206.07
632.444	2234.36
632.642	2273.69
632.84	2284.54
633.038	2252.38
633.236	2203.94
633.434	2252.57
633.632	2280.86
633.83	2248.89
634.028	2297.13
634.227	2262.06
634.425	2347.51
634.623	2230.48
634.821	2313.6
635.019	2270.01
635.216	2307.4
635.414	2294.81
635.612	2272.72
635.81	2302.75
636.008	2338.4
636.206	2285.12
636.404	2343.63
636.602	2312.44
636.8	2297.33
636.997	2332.97
637.195	2374.82
637.393	2326
637.591	2428.1
637.789	2341.5
637.986	2357.39
638.184	2365.72
638.382	2398.66
638.58	2372.5
638.777	2491.46
638.975	2363.78
639.173	2381.22
639.37	2345.57
639.568	2382.57
639.765	2309.34
639.963	2328.13
640.161	2376.96
640.358	2361.65
640.556	2269.23
640.753	2289.58
640.951	2253.73
641.148	2322.13
641.346	2274.46
641.543	2275.04
641.741	2283.57
641.938	2243.08
642.136	2231.26
642.333	2196.38
642.531	2292.09
642.728	2314.38
642.925	2291.71
643.123	2310.89
643.32	2327.74
643.517	2272.91
643.715	2272.53
643.912	2300.04
644.109	2286.09
644.306	2293.26
644.504	2234.16
644.701	2273.49
644.898	2291.32
645.095	2216.73
645.293	2229.51
645.49	2247.73
645.687	2228.55
645.884	2278.92
646.081	2117.53
646.278	2169.65
646.475	2155.7
646.672	2178.95
646.87	2167.9
647.067	2153.18
647.264	2114.62
647.461	2091.57
647.658	2016
647.855	2098.15
648.052	2065.8
648.249	2014.45
648.446	2073.16
648.642	2140.78
648.839	2070.06
649.036	2061.73
649.233	2009.22
649.43	2049.91
649.627	1986.94
649.824	2042.35
650.021	1994.69
650.217	2064.83
650.414	2057.27
650.611	2104.16
650.808	2143.68
651.004	2108.23
651.201	2110.55
651.398	2165.58
651.595	2080.13
651.791	2055.34
651.988	2093.7
652.185	2066.38
652.381	2100.87
652.578	2056.89
652.775	2068.7
652.971	2124.12
653.168	2046.23
653.364	2104.35
653.561	2013.68
653.757	2119.27
653.954	2105.32
654.15	2061.73
654.347	2124.12
654.543	2063.09
654.74	2022.59
654.936	2051.65
655.133	2055.53
655.329	2059.4
655.525	1977.64
655.722	2054.75
655.918	1942.38
656.115	1865.27
656.311	1789.71
656.507	1725.77
656.704	1667.26
656.9	1767.43
657.096	1777.89
657.292	1799.98
657.489	1847.44
657.685	1910.8
657.881	1886.39
658.077	1883.09
658.273	1931.92
658.47	2022.01
658.666	1979.19
658.862	2027.05
659.058	1979.77
659.254	2060.37
659.45	2020.27
659.646	2032.47
659.842	2006.9
660.038	2081.3
660.234	1970.09
660.43	2033.64
660.626	2085.17
660.822	2035.19
661.018	2032.09
661.214	2093.89
661.41	2000.89
661.606	2117.53
661.802	2087.69
661.998	2031.7
662.194	2004.57
662.39	2070.83
662.586	2041.58
662.781	2100.67
662.977	2083.23
663.173	2075.29
663.369	2016.97
663.564	2046.62
663.76	2073.74
663.956	2023.95
664.152	2000.31
664.347	1953.23
664.543	2024.34
664.739	2039.45
664.934	1954.97
665.13	1987.91
665.326	2076.65
665.521	2073.35
665.717	1982.68
665.912	1996.24
666.108	1927.46
666.304	1971.06
666.499	1987.33
666.695	1916.42
666.89	1964.86
667.086	2041
667.281	2009.22
667.477	2059.21
667.672	1989.85
667.867	1975.32
668.063	1979.77
668.258	1953.04
668.454	1993.14
668.649	2035.57
668.844	1977.06
669.04	2022.4
669.235	1958.27
669.43	1983.65
669.626	1941.41
669.821	1997.79
670.016	1914.09
670.211	1963.69
670.407	1843.57
670.602	1982.87
670.797	1923.2
670.992	2022.2
671.187	1915.45
671.382	1966.02
671.578	1897.82
671.773	1939.28
671.968	1848.03
672.163	1957.11
672.358	1956.14
672.553	1880.19
672.748	1930.95
672.943	1991.79
673.138	1909.64
673.333	1975.71
673.528	1893.56
673.723	1938.7
673.918	1872.83
674.113	1937.92
674.308	2019.88
674.503	1944.32
674.698	1941.41
674.892	1915.64
675.087	1935.02
675.282	1919.71
675.477	1883.29
675.672	1946.26
675.867	1881.74
676.061	1924.56
676.256	1840.86
676.451	1913.12
676.646	1920.68
676.84	1903.82
677.035	1876.12
677.23	1861.98
677.424	1901.5
677.619	1906.34
677.814	1927.27
678.008	1942.96
678.203	1831.94
678.397	1854.03
678.592	1910.99
678.787	1921.46
678.981	1831.75
679.176	1911.19
679.37	1849.19
679.565	1886.39
679.759	1880.38
679.954	1897.62
680.148	1918.94
680.342	1953.23
680.537	1909.64
680.731	1889.88
680.926	1879.03
681.12	1884.64
681.314	1840.86
681.509	1852.87
681.703	1831.75
681.897	1868.95
682.092	1836.21
682.286	1845.31
682.48	1910.8
682.674	1891.81
682.869	1829.23
683.063	1867.79
683.257	1897.82
683.451	1828.46
683.645	1866.04
683.839	1835.24
684.034	1816.06
684.228	1857.71
684.422	1752.7
684.616	1749.6
684.81	1828.65
685.004	1809.66
685.198	1769.95
685.392	1836.21
685.586	1782.35
685.78	1776.92
685.974	1811.79
686.168	1792.42
686.362	1810.44
686.556	1647.69
686.75	1517.49
686.944	1454.53
687.138	1351.84
687.331	1240.05
687.525	1198.39
687.719	1154.8
687.913	1239.85
688.107	1261.55
688.301	1234.62
688.494	1293.33
688.688	1222.22
688.882	1209.63
689.076	1239.27
689.269	1254.38
689.463	1351.06
689.657	1289.84
689.85	1283.64
690.044	1367.15
690.238	1344.28
690.431	1353.58
690.625	1357.26
690.818	1376.25
691.012	1387.49
691.205	1472.35
691.399	1421.98
691.593	1472.16
691.786	1496.57
691.98	1514.97
692.173	1533.19
692.366	1547.72
692.56	1563.99
692.753	1615.92
692.947	1535.51
693.14	1597.12
693.333	1559.54
693.527	1529.12
693.72	1562.44
693.914	1512.26
694.107	1496.76
694.3	1527.37
694.493	1494.05
694.687	1587.82
694.88	1483.97
695.073	1627.35
695.266	1580.85
695.46	1575.23
695.653	1635.68
695.846	1626.19
696.039	1556.82
696.232	1594.99
696.425	1630.06
696.618	1657.38
696.812	1667.65
697.005	1743.21
697.198	1843.18
697.391	1757.16
697.584	1766.07
697.777	1826.52
697.97	1793.2
698.163	1798.43
698.356	1783.12
698.549	1852.48
698.742	1793.39
698.935	1774.01
699.127	1777.11
699.32	1783.7
699.513	1762
699.706	1769.17
699.899	1784.28
700.092	1729.84
700.285	1752.51
700.477	1739.14
700.67	1760.06
700.863	1764.13
701.056	1840.47
701.248	1809.66
701.441	1860.23
701.634	1752.7
701.826	1891.43
702.019	1764.33
702.212	1855.39
702.404	1810.24
702.597	1767.43
702.79	1825.94
702.982	1828.65
703.175	1919.13
703.367	1900.92
703.56	1925.91
703.752	2013.1
703.945	1998.57
704.137	1965.63
704.33	1981.71
704.522	1998.76
704.715	2019.49
704.907	2053.79
705.1	2037.9
705.292	2093.89
705.484	2019.3
705.677	2111.91
705.869	2101.64
706.061	2140.2
706.254	2157.44
706.446	2087.5
706.638	2096.6
706.831	2195.22
707.023	2130.9
707.215	2220.6
707.407	2216.34
707.599	2196.19
707.792	2230.1
707.984	2244.24
708.176	2299.46
708.368	2260.51
708.56	2288.61
708.752	2248.5
708.944	2259.54
709.136	2283.18
709.329	2278.92
709.521	2343.63
709.713	2307.59
709.905	2339.37
710.097	2381.61
710.289	2306.04
710.481	2395.36
710.672	2371.34
710.864	2401.17
711.056	2438.76
711.248	2457.17
711.44	2406.41
711.632	2441.47
711.824	2456.59
712.016	2529.43
712.207	2504.44
712.399	2472.47
712.591	2569.73
712.783	2529.43
712.975	2556.95
713.166	2534.86
713.358	2518
713.55	2615.46
713.741	2589.3
713.933	2582.72
714.125	2546.68
714.316	2558.3
714.508	2620.69
714.7	2615.46
714.891	2584.46
715.083	2666.22
715.274	2584.27
715.466	2632.9
715.657	2664.28
715.849	2571.48
716.04	2585.23
716.232	2549.97
716.423	2585.23
716.615	2462.2
716.806	2403.31
716.998	2337.62
717.189	2262.26
717.381	2191.73
717.572	2122.57
717.763	2143.3
717.955	2134.58
718.146	2096.02
718.337	2024.92
718.528	1965.05
718.72	1894.52
718.911	1988.1
719.102	1911.38
719.293	1989.65
719.485	1939.67
719.676	1925.52
719.867	1872.83
720.058	1911.96
720.249	1911.19
720.44	1920.1
720.632	1992.75
720.823	2096.6
721.014	2229.9
721.205	2246.76
721.396	2304.88
721.587	2422.29
721.778	2487
721.969	2521.88
722.16	2586.4
722.351	2625.92
722.542	2718.14
722.733	2717.37
722.924	2644.71
723.115	2664.09
723.305	2643.75
723.496	2593.76
723.687	2493.2
723.878	2511.61
724.069	2513.55
724.26	2525.95
724.45	2487.39
724.641	2463.37
724.832	2462.01
725.023	2456.59
725.213	2421.71
725.404	2406.21
725.595	2397.3
725.785	2444.19
725.976	2527.69
726.167	2492.43
726.357	2490.69
726.548	2583.3
726.739	2505.02
726.929	2604.41
727.12	2587.56
727.31	2643.75
727.501	2564.89
727.691	2582.52
727.882	2609.84
728.072	2643.16
728.263	2681.91
728.453	2738.29
728.644	2699.16
728.834	2709.23
729.024	2678.81
729.215	2683.66
729.405	2713.49
729.596	2776.07
729.786	2809.01
729.976	2798.94
730.167	2812.69
730.357	2772.01
730.547	2822.96
730.737	2834.39
730.928	2845.63
731.118	2914.22
731.308	2834.59
731.498	2924.49
731.688	2947.73
731.879	2988.03
732.069	3018.84
732.259	3089.95
732.449	3166.09
732.639	3231.96
732.829	3249.4
733.019	3313.72
733.209	3362.55
733.399	3398
733.589	3469.3
733.779	3515.8
733.969	3502.05
734.159	3544.28
734.349	3610.54
734.539	3677.97
734.729	3632.44
734.919	3699.09
735.109	3733.96
735.299	3652.78
735.488	3729.89
735.678	3720.59
735.868	3692.31
736.058	3685.14
736.248	3689.21
736.437	3659.17
736.627	3665.57
736.817	3762.64
737.007	3769.8
737.196	3826.96
737.386	3763.41
737.576	3752.75
737.765	3844.98
737.955	3813.98
738.144	3932.55
738.334	3911.63
738.524	3820.95
738.713	3908.33
738.903	3858.93
739.092	3941.85
739.282	3930.61
739.471	3952.31
739.661	3927.51
739.85	3998.81
740.04	3991.26
740.229	4040.66
740.419	4036.21
740.608	4076.7
740.797	4059.26
740.987	4099.17
741.176	4141.8
741.365	4035.63
741.555	3994.36
741.744	4140.83
741.933	4101.11
742.123	4165.44
742.312	4147.81
742.501	4188.1
742.69	4204.38
742.88	4112.74
743.069	4222.98
743.258	4178.8
743.447	4261.15
743.636	4237.32
743.825	4247.39
744.014	4242.74
744.204	4280.91
744.393	4195.47
744.582	4280.13
744.771	4330.9
744.96	4274.13
745.149	4318.88
745.338	4247
745.527	4386.5
745.716	4269.28
745.905	4288.27
746.094	4363.25
746.283	4358.8
746.471	4288.85
746.66	4395.61
746.849	4377.01
747.038	4410.33
747.227	4357.44
747.416	4427.19
747.604	4352.4
747.793	4361.31
747.982	4327.99
748.171	4464.97
748.359	4360.35
748.548	4383.01
748.737	4399.87
748.926	4309.78
749.114	4287.69
749.303	4346.2
749.491	4341.36
749.68	4294.28
749.869	4360.15
750.057	4327.41
750.246	4311.33
750.434	4331.87
750.623	4344.46
750.811	4311.52
751	4316.75
751.188	4285.56
751.377	4320.05
751.565	4281.3
751.754	4298.73
751.942	4216
752.131	4340.78
752.319	4275.87
752.507	4268.12
752.696	4328.38
752.884	4302.03
753.072	4271.22
753.261	4308.23
753.449	4289.43
753.637	4207.67
753.825	4392.7
754.014	4266.38
754.202	4321.02
754.39	4330.32
754.578	4309.78
754.766	4264.44
754.955	4235.57
755.143	4307.07
755.331	4247
755.519	4228.4
755.707	4213.1
755.895	4239.25
756.083	4244.87
756.271	4163.11
756.459	4231.89
756.647	4227.44
756.835	4166.4
757.023	4160.01
757.211	4181.9
757.399	4164.47
757.587	4184.04
757.775	4122.62
757.963	4146.64
758.151	4191.01
758.339	4073.21
758.526	4079.99
758.714	4119.13
758.902	3941.66
759.09	3795.77
759.278	3523.94
759.465	3288.73
759.653	2837.49
759.841	2574.38
760.028	2178.95
760.216	1880.38
760.404	1741.46
760.591	1434.57
760.779	1141.62
760.967	1001.93
761.154	850.42
761.342	889.17
761.529	888.98
761.717	975.39
761.905	959.5
762.092	1061.02
762.28	977.71
762.467	943.81
762.655	879.68
762.842	935.28
763.029	944.58
763.217	939.93
763.404	938.19
763.592	980.04
763.779	918.81
763.966	973.64
764.154	1023.05
764.341	1076.14
764.528	1076.33
764.716	1205.17
764.903	1234.82
765.09	1337.89
765.277	1419.26
765.465	1606.42
765.652	1675.01
765.839	1771.5
766.026	1921.46
766.213	1980.16
766.4	2138.65
766.588	2338.79
766.775	2382.77
766.962	2505.8
767.149	2633.48
767.336	2784.41
767.523	2772.78
767.71	2912.67
767.897	3042.48
768.084	3192.05
768.271	3183.33
768.458	3265.48
768.645	3301.9
768.832	3301.9
769.019	3337.36
769.206	3454.58
769.392	3435.78
769.579	3577.03
769.766	3548.35
769.953	3568.5
770.14	3623.53
770.327	3621.39
770.513	3661.31
770.7	3723.89
770.887	3692.5
771.073	3633.79
771.26	3695.79
771.447	3701.61
771.634	3660.72
771.82	3759.73
772.007	3683.97
772.193	3770
772.38	3767.48
772.567	3684.56
772.753	3695.02
772.94	3771.55
773.126	3748.88
773.313	3740.55
773.499	3752.75
773.686	3767.87
773.872	3671.96
774.059	3749.27
774.245	3704.9
774.432	3664.02
774.618	3615.19
774.804	3698.31
774.991	3655.11
775.177	3654.91
775.363	3672.93
775.55	3702.38
775.736	3641.54
775.922	3653.75
776.109	3634.18
776.295	3658.79
776.481	3672.35
776.667	3679.91
776.853	3630.31
777.04	3599.69
777.226	3625.85
777.412	3665.18
777.598	3549.32
777.784	3571.99
777.97	3559.2
778.156	3622.75
778.342	3548.93
778.528	3561.33
778.715	3502.63
778.901	3488.29
779.087	3503.79
779.272	3525.3
779.458	3464.46
779.644	3501.85
779.83	3526.07
780.016	3598.14
780.202	3523.55
780.388	3511.73
780.574	3409.63
780.76	3438.3
780.946	3476.47
781.131	3476.08
781.317	3435.01
781.503	3470.08
781.689	3410.4
781.874	3523.94
782.06	3417.57
782.246	3431.52
782.432	3417.96
782.617	3438.88
782.803	3473.18
782.989	3379.21
783.174	3409.05
783.36	3333.1
783.545	3357.9
783.731	3333.29
783.916	3299.19
784.102	3398.78
784.288	3306.55
784.473	3319.73
784.659	3337.36
784.844	3352.67
785.029	3318.57
785.215	3299
785.4	3243.59
785.586	3336.59
785.771	3252.11
785.956	3302.49
786.142	3252.5
786.327	3209.1
786.512	3213.36
786.698	3233.32
786.883	3155.24
787.068	3134.51
787.254	3199.61
787.439	3120.75
787.624	3139.93
787.809	3127.34
787.994	3162.99
788.18	3206
788.365	3118.62
788.55	3137.22
788.735	3116.88
788.92	3027.17
789.105	3050.03
789.29	3093.05
789.475	3018.07
789.66	3057.59
789.845	2991.52
790.03	3021.36
790.215	3034.15
790.4	3039.96
790.585	2988.42
790.77	2990.55
790.955	2960.13
791.14	3005.28
791.325	3057.01
791.51	2888.06
791.695	3025.62
791.879	2947.15
792.064	2877.99
792.249	3021.17
792.434	2973.12
792.618	2947.15
792.803	2995.01
792.988	2949.28
793.173	2964.01
793.357	2998.3
793.542	2921.19
793.727	2970.79
793.911	3026.78
794.096	2995.2
794.281	3008.77
794.465	3107
794.65	2997.33
794.834	3044.8
795.019	3075.61
795.203	3082.39
795.388	3049.06
795.572	3039.96
795.757	3028.92
795.941	3039.38
796.126	3023.68
796.31	2931.65
796.494	3013.22
796.679	3011.48
796.863	2927.39
797.048	3073.09
797.232	2982.03
797.416	3022.72
797.601	2997.92
797.785	3099.05
797.969	3081.23
798.153	3008.96
798.338	3065.53
798.522	3098.47
798.706	3109.9
798.89	3086.85
799.074	3181.78
799.258	3138.58
799.443	3100.8
799.627	3111.65
799.811	3106.22
799.995	3039.57
800.179	3037.25
800.363	3036.86
800.547	3069.21
800.731	3107.58
800.915	3007.8
801.099	2993.27
801.283	3013.61
801.467	3024.07
801.651	3000.43
801.835	3070.57
802.019	3029.5
802.202	3011.87
802.386	2973.89
802.57	2971.18
802.754	3006.05
802.938	2941.54
803.121	2974.08
803.305	3080.65
803.489	2993.07
803.673	3019.03
803.856	3004.5
804.04	2969.05
804.224	3028.33
804.407	3008.57
804.591	2948.7
804.775	3021.17
804.958	3007.41
805.142	3080.65
805.326	3019.23
805.509	3031.82
805.693	3077.35
805.876	3095.37
806.06	3034.92
806.243	3071.54
806.427	3087.81
806.61	3108.74
806.794	3046.93
806.977	3131.21
807.16	3083.55
807.344	3035.11
807.527	3062.82
807.71	3076.77
807.894	3044.41
808.077	3070.18
808.26	3014.38
808.444	3010.7
808.627	3054.88
808.81	2990.55
808.993	2970.6
809.177	2907.63
809.36	2914.41
809.543	2991.13
809.726	2857.25
809.909	2853.77
810.092	2833.04
810.276	2859
810.459	2828.19
810.642	2869.65
810.825	2785.18
811.008	2825.67
811.191	2724.54
811.374	2754.57
811.557	2731.32
811.74	2819.28
811.923	2652.85
812.106	2636.96
812.289	2634.64
812.472	2610.61
812.654	2611.97
812.837	2538.35
813.02	2486.42
813.203	2476.15
813.386	2374.44
813.569	2345.57
813.751	2303.72
813.934	2335.69
814.117	2288.99
814.3	2267.1
814.482	2130.51
814.665	2176.04
814.848	2091.18
815.03	2059.79
815.213	2013.68
815.396	2039.45
815.578	1988.88
815.761	1948.19
815.943	2041.58
816.126	1932.31
816.309	1920.29
816.491	1827.88
816.674	1736.62
816.856	1821.87
817.039	1821.87
817.221	1896.66
817.403	1858.49
817.586	1856.74
817.768	1871.66
817.951	1812.76
818.133	1770.91
818.315	1816.83
818.498	1866.82
818.68	1938.89
818.862	1870.5
819.045	1917.58
819.227	1908.86
819.409	1864.49
819.591	1883.29
819.774	1872.05
819.956	1834.66
820.138	1898.4
820.32	1928.62
820.502	2005.15
820.684	2125.08
820.866	2074.32
821.048	2172.94
821.231	2159.57
821.413	2103.19
821.595	2139.81
821.777	2168.29
821.959	2110.36
822.141	2216.34
822.323	2048.55
822.505	1959.43
822.686	1855.19
822.868	1796.68
823.05	1659.7
823.232	1633.55
823.414	1558.76
823.596	1647.5
823.778	1653.12
823.96	1691.09
824.141	1691.87
824.323	1762.39
824.505	1832.14
824.687	1851.13
824.868	1949.16
825.05	2015.81
825.232	2061.54
825.413	2164.41
825.595	2076.84
825.777	2043.52
825.958	2045.45
826.14	2050.49
826.321	2097.57
826.503	2079.17
826.685	2103.38
826.866	2110.36
827.048	2104.35
827.229	2025.11
827.411	1981.32
827.592	1938.89
827.773	1952.07
827.955	1881.93
828.136	1895.88
828.318	1855
828.499	1910.8
828.68	1815.86
828.862	1855.78
829.043	1860.81
829.224	1825.16
829.406	1803.66
829.587	1824.97
829.768	1844.73
829.949	1862.36
830.131	1891.04
830.312	1930.76
830.493	1868.56
830.674	1922.62
830.855	1869.73
831.036	1880.58
831.218	1912.74
831.399	1932.89
831.58	1899.95
831.761	1876.89
831.942	1954.01
832.123	1869.73
832.304	1823.81
832.485	1862.56
832.666	1870.31
832.847	1943.35
833.028	1844.15
833.209	1886
833.389	1861.78
833.57	1756.38
833.751	1799.78
833.932	1886.97
834.113	1873.79
834.294	1848.41
834.475	1880.58
834.655	1949.36
834.836	1940.06
835.017	1920.87
835.198	1838.53
835.378	1916.61
835.559	1957.3
835.74	1863.33
835.92	1901.69
836.101	1870.11
836.281	1946.84
836.462	1929.79
836.643	1958.66
836.823	1996.24
837.004	1977.64
837.184	2034.99
837.365	2012.13
837.545	1986.55
837.726	1952.07
837.906	2012.32
838.087	1984.42
838.267	1991.59
838.448	1950.52
838.628	1971.64
838.808	1987.72
838.989	2002.64
839.169	1948
839.349	1959.04
839.53	2012.71
839.71	2023.56
839.89	1951.29
840.07	1988.69
840.251	1959.82
840.431	1998.95
840.611	1979.97
840.791	1925.72
840.971	1967.18
841.151	1930.95
841.332	1910.8
841.512	2035.57
841.692	1914.29
841.872	1949.74
842.052	1929.21
842.232	1987.14
842.412	1920.68
842.592	1940.25
842.772	1937.92
842.952	1944.32
843.132	1942.19
843.312	1925.14
843.492	1876.31
843.672	1970.09
843.851	1862.36
844.031	1923.59
844.211	1894.33
844.391	1890.65
844.571	1933.08
844.751	1889.88
844.93	1891.43
845.11	1885.42
845.29	1926.11
845.47	1951.29
845.649	1925.14
845.829	1948.19
846.009	1890.46
846.188	1896.07
846.368	1899.17
846.547	1904.02
846.727	1933.27
846.907	1856.16
847.086	1906.54
847.266	1890.65
847.445	1860.62
847.625	1886.39
847.804	1822.06
847.984	1848.8
848.163	1857.52
848.343	1813.54
848.522	1871.08
848.701	1862.56
848.881	1813.54
849.06	1864.3
849.239	1822.64
849.419	1800.56
849.598	1782.35
849.777	1744.95
849.957	1718.6
850.136	1682.95
850.315	1671.13
850.494	1677.14
850.674	1694.19
850.853	1738.75
851.032	1722.28
851.211	1774.01
851.39	1723.45
851.569	1700.78
851.748	1648.85
851.927	1728.1
852.107	1705.62
852.286	1689.54
852.465	1684.31
852.644	1727.9
852.823	1739.14
853.002	1698.26
853.181	1707.75
853.359	1690.9
853.538	1671.52
853.717	1741.27
853.896	1577.36
854.075	1533.57
854.254	1518.46
854.433	1426.43
854.611	1495.41
854.79	1440.96
854.969	1475.06
855.148	1547.72
855.327	1486.69
855.505	1541.32
855.684	1541.91
855.863	1527.18
856.041	1517.3
856.22	1564.77
856.399	1557.4
856.577	1649.82
856.756	1637.23
856.934	1753.48
857.113	1705.82
857.291	1635.87
857.47	1599.64
857.648	1680.43
857.827	1681.79
858.005	1683.34
858.184	1632.19
858.362	1693.22
858.541	1627.74
858.719	1638.39
858.898	1633.55
859.076	1601.97
859.254	1718.6
859.433	1674.82
859.611	1600.42
859.789	1550.62
859.967	1641.1
860.146	1668.23
860.324	1564.77
860.502	1575.62
860.68	1541.52
860.859	1567.48
861.037	1596.35
861.215	1592.09
861.393	1551.98
861.571	1615.72
861.749	1565.35
861.927	1594.6
862.105	1568.06
862.283	1561.47
862.461	1559.54
862.639	1551.2
862.817	1539.58
862.995	1559.15
863.173	1538.42
863.351	1521.56
863.529	1531.83
863.707	1594.8
863.885	1582.59
864.063	1479.52
864.241	1512.26
864.418	1541.91
864.596	1518.66
864.774	1462.86
864.952	1490.95
865.129	1527.76
865.307	1495.79
865.485	1444.26
865.663	1495.41
865.84	1398.53
866.018	1404.73
866.196	1288.87
866.373	1305.73
866.551	1288.68
866.728	1239.47
866.906	1290.81
867.084	1308.63
867.261	1346.41
867.439	1353.78
867.616	1362.3
867.794	1336.34
867.971	1378.77
868.149	1379.54
868.326	1421.78
868.503	1404.73
868.681	1432.44
868.858	1399.11
869.035	1363.46
869.213	1410.54
869.39	1390.2
869.567	1474.29
869.745	1359.01
869.922	1384.19
870.099	1369.86
870.276	1371.6
870.454	1419.26
870.631	1413.06
870.808	1396.4
870.985	1443.29
871.162	1442.71
871.339	1403.38
871.517	1349.13
871.694	1322.97
871.871	1380.13
872.048	1348.74
872.225	1384.39
872.402	1360.17
872.579	1334.01
872.756	1345.25
872.933	1320.06
873.11	1337.5
873.287	1377.99
873.463	1326.85
873.64	1306.31
873.817	1346.03
873.994	1333.63
874.171	1291
874.348	1358.43
874.524	1254.19
874.701	1330.72
874.878	1219.12
875.055	1276.67
875.231	1271.82
875.408	1300.5
875.585	1260.58
875.762	1269.88
875.938	1272.98
876.115	1257.68
876.291	1253.8
876.468	1267.95
876.645	1212.53
876.821	1242.95
876.998	1248.57
877.174	1260.39
877.351	1231.33
877.527	1213.12
877.704	1245.67
877.88	1259.23
878.057	1234.43
878.233	1291.58
878.409	1214.08
878.586	1217.77
878.762	1205.37
878.938	1189.67
879.115	1139.69
879.291	1241.6
879.467	1167
879.644	1175.72
879.82	1185.02
879.996	1198.39
880.172	1151.89
880.349	1157.12
880.525	1173.59
880.701	1153.25
880.877	1156.35
881.053	1168.94
881.229	1140.46
881.405	1184.83
881.581	1135.81
881.757	1140.46
881.933	1168.75
882.109	1191.42
882.285	1136.78
882.461	1121.86
882.637	1153.05
882.813	1145.89
882.989	1127.87
883.165	1185.6
883.341	1161.19
883.517	1207.5
883.693	1190.06
883.869	1200.13
884.044	1149.95
884.22	1172.24
884.396	1204.01
884.572	1179.4
884.747	1199.75
884.923	1190.45
885.099	1181.54
885.275	1196.07
885.45	1174.37
885.626	1160.22
885.801	1115.85
885.977	1143.37
886.153	1086.79
886.328	1154.41
886.504	1103.65
886.679	1182.12
886.855	1129.03
887.03	1139.3
887.206	1175.92
887.381	1134.07
887.557	1200.33
887.732	1171.65
887.908	1152.67
888.083	1196.65
888.258	1157.9
888.434	1136.59
888.609	1157.51
888.784	1163.71
888.96	1142.98
889.135	1128.64
889.31	1117.02
889.485	1140.46
889.661	1134.65
889.836	1168.36
890.011	1185.99
890.186	1154.99
890.361	1141.82
890.537	1179.99
890.712	1161.58
890.887	1171.07
891.062	1175.72
891.237	1186.96
891.412	1122.83
891.587	1162.94
891.762	1176.11
891.937	1162.35
892.112	1111.59
892.287	1120.12
892.462	1080.01
892.637	1064.12
892.812	1035.64
892.987	1058.89
893.161	1002.32
893.336	1037.19
893.511	1043.39
893.686	1061.61
893.861	1025.57
894.035	1039.13
894.21	1034.87
894.385	983.33
894.56	1005.61
894.734	938.77
894.909	946.33
895.084	942.64
895.258	906.22
895.433	933.93
895.608	889.36
895.782	850.61
895.957	850.42
896.131	876.77
896.306	826.78
896.48	776.41
896.655	765.75
896.829	728.75
897.004	725.65
897.178	761.88
897.353	713.83
897.527	768.08
897.701	741.34
897.876	721.97
898.05	796.75
898.224	765.37
898.399	790.36
898.573	746.38
898.747	622.57
898.921	659
899.096	579.76
899.27	609.21
899.444	574.91
899.618	638.46
899.792	650.09
899.967	669.85
900.141	689.22
900.315	613.86
900.489	615.99
900.663	651.06
900.837	671.2
901.011	575.88
901.185	683.8
901.359	643.11
901.533	650.67
901.707	664.23
901.881	615.79
902.055	599.13
902.229	625.67
902.403	698.72
902.576	646.99
902.75	653.77
902.924	730.49
903.098	736.5
903.272	768.47
903.446	829.5
903.619	787.65
903.793	815.74
903.967	811.87
904.14	884.91
904.314	857.2
904.488	850.03
904.661	854.1
904.835	822.91
905.009	861.66
905.182	891.11
905.356	853.71
905.529	844.61
905.703	796.56
905.876	834.73
906.05	778.73
906.223	732.82
906.397	676.05
906.57	686.12
906.744	627.81
906.917	625.48
907.09	639.43
907.264	632.65
907.437	592.93
907.61	559.99
907.784	603.59
907.957	607.66
908.13	573.56
908.304	598.55
908.477	541.2
908.65	571.81
908.823	566.97
908.996	622.19
909.17	558.64
909.343	559.99
909.516	563.87
909.689	557.67
909.862	529.38
910.035	538.49
910.208	517.18
910.381	524.73
910.554	608.43
910.727	544.3
910.9	526.86
911.073	561.35
911.246	632.07
911.419	618.12
911.592	571.23
911.765	549.92
911.938	530.54
912.11	575.88
912.283	566
912.456	614.82
912.629	547.4
912.802	533.64
912.974	506.13
913.147	446.46
913.32	404.8
913.493	429.21
913.665	476.3
913.838	464.48
914.01	454.79
914.183	499.93
914.356	501.29
914.528	533.64
914.701	584.99
914.873	536.55
915.046	473.78
915.218	415.26
915.391	383.49
915.563	396.47
915.736	464.67
915.908	467.38
916.081	485.4
916.253	469.9
916.425	480.36
916.598	471.06
916.77	494.31
916.942	448.2
917.115	375.35
917.287	455.56
917.459	431.35
917.632	367.8
917.804	343.38
917.976	451.5
918.148	442.97
918.32	432.7
918.493	494.7
918.665	539.84
918.837	478.81
919.009	549.92
919.181	527.83
919.353	508.65
919.525	488.5
919.697	500.51
919.869	490.05
920.041	558.25
920.213	633.04
920.385	581.69
920.557	509.62
920.729	551.08
920.901	514.66
921.073	487.15
921.244	490.05
921.416	568.33
921.588	479.59
921.76	499.54
921.932	529.77
922.103	521.44
922.275	543.14
922.447	541.78
922.619	459.25
922.79	491.21
922.962	486.76
923.134	505.36
923.305	440.06
923.477	434.64
923.648	478.23
923.82	441.03
923.991	438.32
924.163	402.87
924.335	434.64
924.506	378.84
924.677	465.45
924.849	405.38
925.02	442
925.192	459.44
925.363	443.55
925.535	414.88
925.706	410.23
925.877	468.93
926.049	426.11
926.22	443.36
926.391	414.88
926.562	439.87
926.734	391.05
926.905	445.3
927.076	377.48
927.247	376.52
927.419	339.12
927.59	338.54
927.761	342.42
927.932	334.67
928.103	329.63
928.274	293.59
928.445	264.92
928.616	295.53
928.787	300.37
928.958	306.77
929.129	296.69
929.3	268.99
929.471	231.4
929.642	192.07
929.813	132.59
929.984	213.77
930.155	164.56
930.326	218.81
930.496	174.82
930.667	116.51
930.838	176.76
931.009	97.52
931.18	146.15
931.35	140.14
931.521	122.13
931.692	102.17
931.863	64
932.033	83.38
932.204	124.45
932.374	117.48
932.545	84.73
932.716	117.09
932.886	95.78
933.057	52.76
933.227	64.19
933.398	138.79
933.568	26.41
933.739	25.45
933.909	17.5
934.08	92.48
934.25	31.26
934.421	32.61
934.591	61.09
934.761	27
934.932	-0.13
935.102	24.67
935.272	20.41
935.443	28.16
935.613	8.4
935.783	48.11
935.953	-14.08
936.123	164.75
936.294	27.77
936.464	32.23
936.634	36.49
936.804	-8.27
936.974	2.97
937.144	57.03
937.314	39.98
937.484	17.11
937.655	-2.26
937.825	63.42
937.995	10.91
938.165	64.78
938.334	22.15
938.504	63.61
938.674	30.1
938.844	69.04
939.014	78.34
939.184	96.16
939.354	112.05
939.524	119.99
939.694	61.29
939.863	79.31
940.033	122.32
940.203	106.82
940.373	87.64
940.542	109.34
940.712	80.47
940.882	134.53
941.051	136.27
941.221	114.57
941.391	134.91
941.56	86.28
941.73	31.84
941.899	172.89
942.069	39.4
942.238	115.54
942.408	86.67
942.577	91.13
942.747	76.79
942.916	19.25
943.086	51.99
943.255	95.19
943.425	74.46
943.594	46.76
943.763	16.73
943.933	28.93
944.102	-1.68
944.271	41.72
944.441	81.44
944.61	12.46
944.779	58.77
944.948	159.32
945.117	9.36
945.287	41.91
945.456	-4
945.625	43.46
945.794	81.83
945.963	43.46
946.132	82.02
946.301	33.58
946.47	106.24
946.639	15.18
946.808	21.76
946.977	81.63
947.146	80.86
947.315	39.78
947.484	100.23
947.653	52.18
947.822	24.86
947.991	36.3
948.16	128.91
948.329	96.74
948.498	65.94
948.666	83.76
948.835	76.79
949.004	20.8
949.173	16.15
949.341	54.31
949.51	58.96
949.679	89.38
949.847	70.39
950.016	125.81
950.185	107.79
950.353	16.92
950.522	57.61
950.69	86.67
950.859	41.72
951.028	95.58
951.196	83.38
951.365	31.45
951.533	47.15
951.701	93.45
951.87	85.31
952.038	25.06
952.207	39.4
952.375	78.14
952.543	49.86
952.712	34.36
952.88	35.52
953.048	112.83
953.217	67.68
953.385	60.13
953.553	93.26
953.721	40.95
953.89	63.03
954.058	33
954.226	41.53
954.394	69.23
954.562	13.63
954.73	22.54
954.898	54.12
955.067	73.88
955.235	64.78
955.403	82.6
955.571	114.38
955.739	76.4
955.907	26.61
956.075	32.81
956.243	60.51
956.41	90.74
956.578	23.31
956.746	43.27
956.914	19.44
957.082	58
957.25	95.58
957.418	35.71
957.585	95.19
957.753	88.61
957.921	20.41
958.089	39.98
958.256	82.99
958.424	58.58
958.592	79.5
958.759	25.83
958.927	78.34
959.095	55.28
959.262	60.71
959.43	55.86
959.597	43.27
959.765	43.27
959.932	34.16
960.1	104.88
960.267	86.67
960.435	46.76
960.602	100.43
960.77	48.31
960.937	5.49
961.104	53.54
961.272	15.18
961.439	65.55
961.606	72.33
961.774	102.94
961.941	48.31
962.108	99.46
962.275	51.21
962.443	108.76
962.61	64.78
962.777	146.34
962.944	105.46
963.111	99.65
963.278	73.3
963.446	104.3
963.613	72.53
963.78	98.49
963.947	115.54
964.114	73.11
964.281	142.47
964.448	98.1
964.615	69.62
964.782	98.1
964.949	92.09
965.116	102.75
965.282	133.56
965.449	49.86
965.616	43.66
965.783	83.38
965.95	78.92
966.117	31.06
966.283	68.46
966.45	92.09
966.617	75.82
966.784	126.78
966.95	123.09
967.117	91.51
967.284	79.89
967.45	74.85
967.617	155.84
967.784	117.28
967.95	145.18
968.117	94.23
968.283	134.53
968.45	194.39
968.616	102.94
968.783	166.49
968.949	120.77
969.116	150.8
969.282	101.78
969.449	115.34
969.615	119.41
969.781	70.78
969.948	63.03
970.114	75.63
970.28	139.37
970.447	96.74
970.613	152.35
970.779	99.84
970.945	115.93
971.112	100.62
971.278	93.84
971.444	133.94
971.61	131.62
971.776	107.4
971.942	128.52
972.108	110.89
972.275	61.48
972.441	101.01
972.607	172.5
972.773	86.28
972.939	103.53
973.105	94.23
973.271	70.2
973.437	82.6
973.602	86.48
973.768	89.96
973.934	79.11
974.1	126.39
974.266	44.63
974.432	101.59
974.598	85.89
974.763	80.08
974.929	49.08
975.095	131.62
975.261	59.35
975.426	38.43
975.592	77.95
975.758	136.66
975.923	33.2
976.089	50.44
976.255	81.83
976.42	71.36
976.586	111.86
976.751	111.66
976.917	165.72
977.082	110.89
977.248	68.26
977.413	27.96
977.579	65.55
977.744	92.29
977.91	57.8
978.075	75.24
978.24	90.54
978.406	77.37
978.571	53.35
978.736	74.46
978.902	88.61
979.067	52.96
979.232	39.01
979.397	69.23
979.563	113.41
979.728	55.09
979.893	81.24
980.058	68.46
980.223	119.61
980.388	87.25
980.554	75.04
980.719	74.27
980.884	77.95
981.049	111.86
981.214	67.1
981.379	98.49
981.544	71.75
981.709	74.08
981.874	72.72
982.039	60.71
982.204	119.22
982.368	91.32
982.533	45.79
982.698	102.75
982.863	102.94
983.028	77.56
983.193	62.06
983.357	103.72
983.522	90.74
983.687	70.59
983.852	61.87
984.016	82.79
984.181	105.08
984.346	101.98
984.51	104.69
984.675	86.09
984.839	106.04
985.004	88.8
985.168	89.77
985.333	69.81
985.498	84.34
985.662	111.08
985.827	96.74
985.991	57.8
986.155	80.47
986.32	95.58
986.484	118.64
986.649	115.93
986.813	49.28
986.977	102.36
987.142	96.55
987.306	41.14
987.47	63.23
987.634	85.89
987.799	85.7
987.963	89.38
988.127	126.19
988.291	144.6
988.455	83.57
988.62	53.54
988.784	106.43
988.948	79.31
989.112	43.27
989.276	53.15
989.44	85.89
989.604	69.23
989.768	53.93
989.932	148.86
990.096	50.05
990.26	64.97
990.424	24.67
990.588	82.21
990.752	140.73
990.915	114.38
991.079	71.36
991.243	46.37
991.407	115.15
991.571	66.13
991.734	85.7
991.898	126.78
992.062	174.82
992.226	70.01
992.389	66.52
992.553	34.16
992.717	30.48
992.88	67.68
993.044	72.53
993.207	77.18
993.371	91.13
993.535	83.18
993.698	94.81
993.862	122.71
994.025	118.44
994.189	88.03
994.352	74.66
994.515	93.26
994.679	108.56
994.842	85.89
995.006	84.15
995.169	71.94
995.332	47.92
995.496	87.25
995.659	38.62
995.822	65.74
995.985	46.76
996.149	99.26
996.312	56.25
996.475	138.79
996.638	64.78
996.801	98.29
996.964	128.13
997.128	73.88
997.291	50.25
997.454	57.22
997.617	23.31
997.78	104.11
997.943	62.84
998.106	84.54
998.269	41.14
998.432	40.36
998.595	59.16
998.758	18.08
998.92	59.35
999.083	20.99
999.246	33.39
999.409	55.48
999.572	13.05
999.735	27.77
999.897	80.08
1000.06	36.3
1000.223	64.78
1000.386	76.98
1000.548	73.49
1000.711	70.39
1000.874	51.99
1001.036	-1.49
1001.199	72.72
1001.361	32.61
1001.524	76.98
1001.687	92.29
1001.849	39.4
1002.012	50.05
1002.174	67.68
1002.337	80.47
1002.499	60.9
1002.661	81.63
1002.824	37.07
1002.986	19.05
1003.149	44.05
1003.311	29.71
1003.473	109.14
1003.636	16.73
1003.798	61.48
1003.96	61.29
1004.123	67.1
1004.285	24.67
1004.447	37.85
1004.609	36.3
1004.771	99.26
1004.933	13.63
1005.096	21.57
1005.258	28.55
1005.42	33.2
1005.582	66.13
1005.744	14.21
1005.906	2
1006.068	57.41
1006.23	0.06
1006.392	26.41
1006.554	17.89
1006.716	78.73
1006.878	74.85
1007.04	-4
1007.202	40.95
1007.363	33.78
1007.525	37.85
1007.687	46.18
1007.849	93.45
1008.011	-3.23
1008.172	-8.27
1008.334	26.61
1008.496	55.67
1008.658	21.38
1008.819	4.13
1008.981	4.52
1009.143	28.74
1009.304	28.74
1009.466	85.89
1009.627	101.39
1009.789	154.87
1009.95	41.14
1010.112	32.23
1010.273	31.06
1010.435	10.53
1010.596	35.91
1010.758	33.2
1010.919	10.14
1011.081	10.14
1011.242	17.7
1011.403	33.78
1011.565	25.64
1011.726	42.5
1011.887	-8.65
1012.049	46.18
1012.21	74.66
1012.371	90.35
1012.532	-38.3
1012.693	30.68
1012.855	13.82
1013.016	1.61
1013.177	61.48
1013.338	23.51
1013.499	67.68
1013.66	54.12
1013.821	57.22
1013.982	41.14
1014.143	12.66
1014.304	22.35
1014.465	25.64
1014.626	52.96
1014.787	10.53
1014.948	91.9
1015.109	-10.4
1015.27	60.9
1015.431	17.7
1015.592	5.49
1015.752	65.55
1015.913	32.42
1016.074	5.88
1016.235	18.47
1016.395	30.1
1016.556	20.99
1016.717	10.33
1016.877	70.2
1017.038	13.82
1017.199	50.44
1017.359	13.63
1017.52	24.28
1017.681	3.16
1017.841	34.16
1018.002	4.33
1018.162	2.78
1018.323	85.12
1018.483	9.36
1018.644	6.46
1018.804	-21.25
1018.964	-13.69
1019.125	-11.95
1019.285	44.63
1019.446	1.61
1019.606	-28.22
1019.766	-14.08
1019.926	67.88
1020.087	33.78
1020.247	-19.31
1020.407	9.95
1020.567	47.92
1020.728	16.53
1020.888	-1.49
1021.048	-9.24
1021.208	-13.5
1021.368	15.95
1021.528	40.17
1021.688	61.29
1021.848	54.51
1022.008	12.46
1022.168	33.97
1022.328	26.22
1022.488	33.58
1022.648	5.3
1022.808	19.83
1022.968	14.98
1023.128	3.16
1023.288	19.25
1023.448	21.38
1023.608	38.81
1023.767	16.92
1023.927	-4.39
1024.087	-4.78
1024.247	-18.73
1024.406	7.23
1024.566	2.2
1024.726	-12.14
1024.885	-11.17
1025.045	22.35
1025.205	5.88
1025.364	11.88
1025.524	30.87
1025.683	-9.43
1025.843	9.36
1026.003	-2.45
1026.162	46.95
1026.321	55.28
1026.481	14.4
1026.64	-10.2
1026.8	13.05
1026.959	21.57
1027.119	11.69
1027.278	11.3
1027.437	3.75
1027.597	42.88
1027.756	15.56
1027.915	17.89
1028.074	48.11
1028.234	-19.31
1028.393	30.1
1028.552	0.06
1028.711	-53.22
1028.87	50.63
1029.03	10.53
1029.189	5.68
1029.348	-52.44
1029.507	-8.46
1029.666	17.7
1029.825	-14.47
1029.984	-7.49
1030.143	13.82
1030.302	5.49
1030.461	-32.68
1030.62	9.17
1030.779	42.88
1030.938	-2.26
1031.097	4.91
1031.255	32.61
1031.414	59.54
1031.573	55.28
1031.732	-52.63
1031.891	2.2
1032.049	37.65
1032.208	42.88
1032.367	-7.69
1032.525	4.71
1032.684	2.39
1032.843	4.71
1033.001	-39.46
1033.16	136.46
1033.319	64
1033.477	18.47
1033.636	0.45
1033.794	-33.45
1033.953	19.44
1034.111	36.1
1034.27	-17.95
1034.428	12.66
1034.587	-16.99
1034.745	11.5
1034.903	38.23
1035.062	20.21
1035.22	-40.23
1035.378	65.94
1035.537	-11.37
1035.695	27.77
1035.853	-30.74
1036.011	43.85
1036.17	32.03
1036.328	-45.66
1036.486	19.83
1036.644	18.28
1036.802	-54.96
1036.96	-13.3
1037.119	-1.1
1037.277	6.07
1037.435	-61.35
1037.593	-33.26
1037.751	21.38
1037.909	27.38
1038.067	27.38
