Data from oakcork_FLMT105791__258__17-33-29-054.txt Node

Date: Mon Mar 20 17:33:29 GMT 2023
User: antho
Spectrometer: FLMT10579
Trigger mode: 0
Integration Time (sec): 1.000000E-1
Scans to average: 10
Electric dark correction enabled: true
Nonlinearity correction enabled: false
Boxcar width: 0
XAxis mode: Wavelengths
Number of Pixels in Spectrum: 3648
>>>>>Begin Spectral Data<<<<<
345.248	-131.68
345.464	-131.68
345.681	-131.68
345.898	-158.61
346.114	-139.63
346.331	-33.45
346.548	26.03
346.764	-0.71
346.981	-7.88
347.197	-26.29
347.414	24.09
347.631	-35.39
347.847	57.22
348.064	1.23
348.28	9.95
348.497	-25.7
348.713	10.91
348.93	58.19
349.146	17.7
349.363	-1.29
349.579	23.31
349.796	-4
350.012	-19.7
350.229	15.76
350.445	-14.08
350.661	-16.6
350.878	13.43
351.094	17.7
351.311	9.17
351.527	-6.72
351.743	8.98
351.96	27.19
352.176	48.5
352.392	42.3
352.609	29.32
352.825	-1.49
353.041	-6.14
353.257	-8.46
353.474	0.45
353.69	14.6
353.906	27.96
354.122	1.81
354.339	41.53
354.555	-4.59
354.771	-2.07
354.987	73.88
355.203	67.88
355.42	-4.97
355.636	15.18
355.852	-3.04
356.068	2.58
356.284	-34.81
356.5	57.22
356.716	23.9
356.932	-7.1
357.148	44.63
357.364	25.83
357.58	46.95
357.796	51.21
358.012	55.67
358.228	22.93
358.444	-50.89
358.66	49.28
358.876	21.18
359.092	-7.88
359.308	27.19
359.524	20.99
359.74	6.85
359.956	1.23
360.172	29.71
360.388	37.07
360.604	-35.2
360.819	63.42
361.035	33
361.251	32.03
361.467	-3.81
361.683	38.23
361.898	9.56
362.114	38.43
362.33	28.16
362.546	69.81
362.762	20.99
362.977	20.21
363.193	-34.62
363.409	11.88
363.624	-21.05
363.84	-14.27
364.056	-6.91
364.271	13.43
364.487	19.05
364.703	-27.45
364.918	-26.87
365.134	22.93
365.35	10.91
365.565	108.56
365.781	13.05
365.996	30.87
366.212	73.88
366.427	33.58
366.643	2.78
366.858	1.23
367.074	-18.92
367.289	54.51
367.505	119.8
367.72	17.31
367.936	16.15
368.151	44.82
368.367	23.51
368.582	6.07
368.798	1.81
369.013	61.29
369.228	-0.32
369.444	36.49
369.659	63.61
369.874	40.75
370.09	64
370.305	-44.3
370.52	-9.04
370.736	77.37
370.951	42.11
371.166	48.5
371.381	86.67
371.597	33.58
371.812	1.42
372.027	6.07
372.242	13.24
372.458	88.99
372.673	-5.75
372.888	20.02
373.103	22.54
373.318	89.19
373.533	9.75
373.749	40.56
373.964	-11.75
374.179	64.58
374.394	-19.7
374.609	70.2
374.824	-27.45
375.039	42.5
375.254	-9.04
375.469	81.24
375.684	23.7
375.899	63.81
376.114	14.01
376.329	38.43
376.544	59.54
376.759	51.21
376.974	10.72
377.189	8.2
377.404	3.75
377.619	64.97
377.834	-46.63
378.049	-25.9
378.264	6.07
378.478	18.47
378.693	0.65
378.908	27.77
379.123	3.36
379.338	53.35
379.553	55.67
379.767	18.47
379.982	18.08
380.197	54.51
380.412	2.97
380.626	26.41
380.841	96.74
381.056	52.76
381.271	72.14
381.485	-7.69
381.7	0.26
381.915	44.05
382.129	-1.29
382.344	45.79
382.559	12.27
382.773	77.76
382.988	-17.37
383.202	44.24
383.417	-11.75
383.632	107.4
383.846	15.95
384.061	36.1
384.275	-1.49
384.49	41.53
384.704	51.6
384.919	43.46
385.133	51.21
385.348	37.07
385.562	-28.22
385.777	47.53
385.991	26.8
386.206	42.11
386.42	35.91
386.634	37.46
386.849	37.85
387.063	41.72
387.277	45.4
387.492	11.69
387.706	13.24
387.92	-3.23
388.135	59.35
388.349	41.53
388.563	33.39
388.778	36.68
388.992	50.05
389.206	74.08
389.42	94.61
389.635	41.91
389.849	44.63
390.063	82.02
390.277	58.58
390.491	95.97
390.706	52.96
390.92	71.94
391.134	24.09
391.348	78.53
391.562	8.2
391.776	21.38
391.99	19.25
392.205	44.43
392.419	4.52
392.633	44.05
392.847	95.78
393.061	9.75
393.275	76.98
393.489	36.68
393.703	18.66
393.917	79.11
394.131	30.87
394.345	58.19
394.559	75.24
394.773	37.85
394.986	63.61
395.2	46.37
395.414	68.26
395.628	14.21
395.842	23.51
396.056	43.85
396.27	-5.17
396.484	42.69
396.697	49.28
396.911	112.24
397.125	47.92
397.339	78.34
397.553	25.83
397.766	104.49
397.98	77.95
398.194	68.07
398.408	42.69
398.621	74.27
398.835	89.58
399.049	52.38
399.262	77.56
399.476	81.83
399.69	91.13
399.903	118.06
400.117	35.91
400.331	94.81
400.544	77.56
400.758	150.02
400.971	81.44
401.185	116.51
401.398	44.63
401.612	124.06
401.826	92.48
402.039	105.08
402.253	52.76
402.466	93.84
402.68	63.61
402.893	99.26
403.106	66.13
403.32	50.63
403.533	109.92
403.747	82.99
403.96	85.12
404.174	87.64
404.387	50.83
404.6	97.52
404.814	111.08
405.027	56.83
405.24	73.11
405.454	64.19
405.667	116.51
405.88	12.66
406.094	83.76
406.307	119.8
406.52	73.69
406.733	85.7
406.947	17.5
407.16	112.24
407.373	124.45
407.586	29.9
407.799	47.15
408.012	102.94
408.226	96.74
408.439	124.26
408.652	47.73
408.865	86.67
409.078	124.84
409.291	89.58
409.504	54.51
409.717	103.33
409.93	86.09
410.143	54.31
410.357	62.06
410.57	41.91
410.783	77.37
410.996	82.02
411.209	88.22
411.421	100.04
411.634	96.55
411.847	67.68
412.06	83.38
412.273	71.75
412.486	102.36
412.699	167.66
412.912	85.12
413.125	116.31
413.338	85.89
413.55	117.86
413.763	92.87
413.976	104.69
414.189	70.2
414.402	82.41
414.615	159.71
414.827	81.63
415.04	129.29
415.253	94.61
415.466	138.59
415.678	138.59
415.891	114.96
416.104	99.84
416.316	95.97
416.529	67.49
416.742	125.23
416.954	131.81
417.167	119.22
417.38	88.61
417.592	142.08
417.805	62.45
418.017	48.11
418.23	111.47
418.442	90.54
418.655	83.18
418.868	113.6
419.08	140.34
419.293	130.65
419.505	102.17
419.718	108.95
419.93	139.18
420.142	78.73
420.355	152.35
420.567	158.36
420.78	126.39
420.992	110.5
421.205	149.44
421.417	83.18
421.629	99.84
421.842	68.84
422.054	71.94
422.266	132.01
422.479	149.06
422.691	109.92
422.903	141.5
423.115	93.26
423.328	128.13
423.54	131.62
423.752	138.98
423.964	94.81
424.177	108.37
424.389	122.51
424.601	198.46
424.813	102.56
425.025	144.21
425.238	165.33
425.45	96.94
425.662	118.25
425.874	394.15
426.086	118.44
426.298	157.19
426.51	128.71
426.722	136.08
426.934	115.54
427.146	174.44
427.358	86.48
427.57	141.31
427.782	110.5
427.994	127.94
428.206	125.03
428.418	75.63
428.63	146.15
428.842	147.7
429.054	137.43
429.266	164.94
429.478	91.13
429.69	144.6
429.902	94.81
430.114	135.88
430.325	119.41
430.537	84.73
430.749	118.44
430.961	71.56
431.173	104.69
431.384	152.16
431.596	40.17
431.808	116.31
432.02	134.53
432.231	157.58
432.443	170.17
432.655	137.63
432.867	126
433.078	144.6
433.29	191.87
433.502	186.64
433.713	187.81
433.925	136.66
434.136	190.71
434.348	100.62
434.56	106.63
434.771	242.44
434.983	95
435.194	128.33
435.406	155.84
435.617	187.42
435.829	210.67
436.04	180.25
436.252	196.14
436.463	204.66
436.675	194.78
436.886	200.01
437.098	184.51
437.309	212.02
437.521	157.58
437.732	170.95
437.943	202.72
438.155	164.17
438.366	119.99
438.578	209.51
438.789	171.14
439	187.22
439.211	174.24
439.423	207.96
439.634	179.28
439.845	193.42
440.057	163.78
440.268	211.06
440.479	168.43
440.69	179.47
440.902	148.67
441.113	156.42
441.324	167.66
441.535	189.55
441.746	210.47
441.957	158.74
442.168	167.27
442.38	225.2
442.591	216.29
442.802	189.55
443.013	187.42
443.224	198.27
443.435	170.56
443.646	178.51
443.857	183.74
444.068	158.94
444.279	181.99
444.49	275.38
444.701	185.67
444.912	290.69
445.123	214.93
445.334	214.93
445.545	201.95
445.756	205.82
445.967	172.31
446.178	221.91
446.388	240.5
446.599	220.94
446.81	237.79
447.021	194.2
447.232	246.7
447.443	261.04
447.653	169.59
447.864	243.6
448.075	208.54
448.286	215.12
448.496	221.91
448.707	263.56
448.918	187.61
449.129	297.85
449.339	202.34
449.55	243.22
449.761	196.91
449.971	259.49
450.182	195.75
450.393	215.32
450.603	210.09
450.814	260.27
451.024	250.58
451.235	281.58
451.446	270.15
451.656	298.63
451.867	201.37
452.077	255.04
452.288	282.74
452.498	264.72
452.709	222.68
452.919	223.07
453.13	208.92
453.34	289.52
453.55	166.3
453.761	260.46
453.971	255.81
454.182	264.53
454.392	266.47
454.602	307.54
454.813	248.64
455.023	255.62
455.233	188.97
455.444	261.82
455.654	207.37
455.864	257.17
456.075	236.24
456.285	205.44
456.495	232.56
456.705	241.86
456.916	275.19
457.126	288.55
457.336	298.63
457.546	208.54
457.756	233.72
457.967	296.69
458.177	248.64
458.387	251.94
458.597	224.81
458.807	271.5
459.017	242.44
459.227	261.43
459.437	225.97
459.647	298.44
459.857	264.34
460.068	243.02
460.278	297.08
460.488	256.59
460.698	340.67
460.908	258.52
461.117	240.12
461.327	231.21
461.537	279.84
461.747	273.83
461.957	276.15
462.167	379.42
462.377	282.35
462.587	263.56
462.797	301.34
463.007	290.69
463.216	287.39
463.426	310.84
463.636	305.22
463.846	243.99
464.056	284.29
464.265	320.33
464.475	252.9
464.685	260.85
464.895	297.47
465.104	264.72
465.314	296.11
465.524	290.1
465.733	232.76
465.943	340.87
466.153	342.22
466.362	320.91
466.572	300.76
466.782	307.35
466.991	296.11
467.201	347.84
467.41	258.72
467.62	324.98
467.829	281.97
468.039	310.25
468.249	289.33
468.458	290.69
468.668	313.74
468.877	345.71
469.086	348.42
469.296	359.47
469.505	256.59
469.715	362.18
469.924	313.16
470.134	355.78
470.343	366.44
470.552	300.57
470.762	302.89
470.971	307.93
471.18	333.12
471.39	296.11
471.599	288.36
471.808	334.28
472.018	304.83
472.227	364.5
472.436	340.67
472.645	337.18
472.855	316.65
473.064	374.97
473.273	341.06
473.482	380
473.691	390.27
473.901	370.51
474.11	356.17
474.319	426.5
474.528	362.57
474.737	393.37
474.946	377.87
475.155	375.35
475.364	427.28
475.573	392.21
475.783	363.92
475.992	420.69
476.201	433.86
476.41	361.98
476.619	323.04
476.828	376.9
477.037	388.14
477.245	379.62
477.454	435.8
477.663	363.34
477.872	358.5
478.081	417.59
478.29	378.45
478.499	457.7
478.708	419.91
478.917	480.36
479.125	421.08
479.334	428.63
479.543	407.52
479.752	435.61
479.961	420.69
480.169	451.11
480.378	417.59
480.587	526.28
480.796	459.05
481.004	420.11
481.213	468.55
481.422	467
481.63	451.3
481.839	510.39
482.048	504.19
482.256	481.72
482.465	484.24
482.674	501.09
482.882	496.06
483.091	539.46
483.299	477.85
483.508	507.68
483.716	482.3
483.925	491.21
484.134	464.28
484.342	462.15
484.551	536.16
484.759	542.36
484.967	528.41
485.176	510.2
485.384	521.05
485.593	552.83
485.801	496.83
486.01	494.7
486.218	479.59
486.426	441.42
486.635	460.02
486.843	434.25
487.051	462.54
487.26	480.95
487.468	499.93
487.676	539.65
487.885	459.25
488.093	521.63
488.301	538.88
488.509	523.38
488.717	551.08
488.926	525.12
489.134	530.16
489.342	533.84
489.55	516.21
489.758	508.84
489.967	533.26
490.175	616.57
490.383	519.5
490.591	589.44
490.799	532.48
491.007	595.26
491.215	566.78
491.423	557.28
491.631	545.08
491.839	561.16
492.047	574.53
492.255	516.21
492.463	498.77
492.671	556.51
492.879	587.12
493.087	586.54
493.295	599.52
493.503	592.74
493.711	593.12
493.919	615.21
494.127	631.68
494.334	621.99
494.542	543.53
494.75	610.37
494.958	575.3
495.166	653.38
495.374	626.64
495.581	623.35
495.789	609.79
495.997	657.26
496.205	610.95
496.412	620.25
496.62	609.79
496.828	640.01
497.035	591.77
497.243	638.46
497.451	613.08
497.658	619.09
497.866	606.88
498.074	692.32
498.281	597.97
498.489	674.5
498.696	624.9
498.904	610.95
499.112	618.51
499.319	687.48
499.527	639.24
499.734	695.04
499.942	627.81
500.149	609.98
500.357	645.82
500.564	606.49
500.771	656.09
500.979	612.69
501.186	601.65
501.394	635.56
501.601	659.77
501.808	663.07
502.016	638.85
502.223	640.4
502.43	636.14
502.638	645.05
502.845	602.04
503.052	672.95
503.26	636.33
503.467	697.75
503.674	643.5
503.881	690.39
504.089	714.99
504.296	686.12
504.503	599.91
504.71	672.95
504.917	631.68
505.125	644.47
505.332	660.74
505.539	689.61
505.746	729.14
505.953	684.38
506.16	699.3
506.367	782.61
506.574	726.42
506.781	768.85
506.988	648.15
507.195	685.93
507.402	698.33
507.609	734.37
507.816	679.15
508.023	665.39
508.23	686.32
508.437	669.46
508.644	698.91
508.851	762.65
509.058	741.15
509.265	721
509.472	721
509.679	795.59
509.885	701.24
510.092	737.27
510.299	701.62
510.506	742.12
510.713	752.58
510.92	738.24
511.126	762.85
511.333	774.47
511.54	743.28
511.746	795.4
511.953	809.54
512.16	817.87
512.367	760.13
512.573	772.34
512.78	743.67
512.987	780.48
513.193	748.12
513.4	676.63
513.606	744.44
513.813	756.07
514.02	773.31
514.226	838.8
514.433	807.99
514.639	711.5
514.846	763.23
515.052	745.41
515.259	777.18
515.465	776.8
515.672	754.71
515.878	839.57
516.085	771.57
516.291	814.58
516.497	752
516.704	744.64
516.91	710.73
517.117	697.94
517.323	655.12
517.529	719.84
517.736	698.91
517.942	711.12
518.148	739.79
518.354	762.85
518.561	743.86
518.767	742.31
518.973	798.69
519.179	798.5
519.386	775.44
519.592	750.45
519.798	741.54
520.004	842.87
520.21	794.04
520.417	798.69
520.623	858.56
520.829	862.05
521.035	826.59
521.241	865.92
521.447	889.75
521.653	949.23
521.859	833.95
522.065	875.61
522.271	960.86
522.477	908.16
522.683	936.83
522.889	886.26
523.095	907.38
523.301	919.78
523.507	863.21
523.713	910.68
523.919	844.22
524.125	945.36
524.331	919.59
524.537	962.21
524.742	953.11
524.948	958.14
525.154	955.43
525.36	1037.58
525.566	961.83
525.772	1016.85
525.977	947.68
526.183	969.77
526.389	979.46
526.595	919.01
526.8	962.99
527.006	887.62
527.212	885.1
527.417	867.47
527.623	895.18
527.829	946.71
528.034	933.34
528.24	925.6
528.446	949.04
528.651	1014.53
528.857	982.75
529.062	1026.34
529.268	1017.63
529.473	1000.38
529.679	979.46
529.884	1081.17
530.09	1054.63
530.295	1067.03
530.501	1074.59
530.706	1079.43
530.912	1052.69
531.117	1069.55
531.323	1060.44
531.528	1069.16
531.733	1086.79
531.939	1058.51
532.144	1120.12
532.35	1057.54
532.555	1082.72
532.76	1084.08
532.966	1088.92
533.171	1086.79
533.376	1055.79
533.581	1031.77
533.787	1066.06
533.992	1060.83
534.197	1083.5
534.402	1079.62
534.607	1074.2
534.813	1154.8
535.018	1071.87
535.223	1076.52
535.428	1126.12
535.633	1168.36
535.838	1135.42
536.043	1123.22
536.249	1217.77
536.454	1120.7
536.659	1167
536.864	1112.75
537.069	1139.88
537.274	1152.47
537.479	1145.89
537.684	1155.77
537.889	1088.15
538.094	1203.82
538.299	1138.33
538.504	1173.79
538.708	1170.1
538.913	1192.39
539.118	1151.5
539.323	1183.47
539.528	1128.45
539.733	1172.24
539.938	1163.71
540.142	1170.69
540.347	1147.05
540.552	1139.88
540.757	1157.32
540.962	1131.55
541.166	1138.14
541.371	1104.81
541.576	1153.44
541.781	1071.29
541.985	1196.07
542.19	1171.85
542.395	1210.21
542.599	1223.58
542.804	1185.02
543.008	1236.17
543.213	1172.62
543.418	1148.79
543.622	1210.79
543.827	1133.68
544.031	1233.46
544.236	1241.4
544.44	1193.55
544.645	1254.38
544.849	1186.19
545.054	1250.7
545.258	1258.07
545.463	1291.2
545.667	1216.6
545.872	1266.2
546.076	1212.34
546.281	1237.14
546.485	1191.42
546.689	1195.68
546.894	1268.53
547.098	1203.62
547.302	1189.67
547.507	1204.4
547.711	1232.1
547.915	1294.49
548.119	1200.72
548.324	1210.79
548.528	1282.09
548.732	1244.7
548.936	1287.13
549.141	1298.95
549.345	1245.67
549.549	1231.33
549.753	1242.95
549.957	1311.35
550.161	1286.55
550.366	1266.78
550.57	1204.2
550.774	1238.11
550.978	1266.4
551.182	1261.75
551.386	1233.85
551.59	1222.42
551.794	1281.7
551.998	1286.74
552.202	1190.25
552.406	1202.27
552.61	1256.52
552.814	1288.87
553.018	1298.56
553.222	1238.3
553.426	1242.76
553.63	1360.36
553.833	1237.14
554.037	1219.12
554.241	1301.85
554.445	1256.52
554.649	1247.22
554.853	1239.08
555.056	1316.58
555.26	1290.81
555.464	1262.91
555.668	1275.12
555.871	1276.08
556.075	1297.2
556.279	1258.07
556.483	1235.59
556.686	1256.71
556.89	1266.4
557.094	1272.6
557.297	1204.59
557.501	1275.89
557.704	1190.45
557.908	1259.03
558.112	1228.23
558.315	1293.91
558.519	1223
558.722	1222.22
558.926	1226.48
559.129	1151.5
559.333	1140.46
559.536	1165.65
559.74	1137.94
559.943	1148.02
560.147	1144.34
560.35	1139.69
560.553	1177.85
560.757	1135.81
560.96	1274.34
561.164	1173.2
561.367	1246.44
561.57	1167.39
561.774	1195.68
561.977	1177.85
562.18	1171.46
562.384	1261.17
562.587	1173.01
562.79	1209.43
562.993	1152.09
563.197	1201.88
563.4	1254.38
563.603	1249.54
563.806	1286.55
564.009	1161.77
564.212	1200.91
564.416	1118.57
564.619	1187.35
564.822	1126.32
565.025	1200.91
565.228	1129.61
565.431	1163.13
565.634	1057.92
565.837	1152.67
566.04	1103.65
566.243	1126.12
566.446	1047.07
566.649	1134.45
566.852	1076.14
567.055	1096.87
567.258	1143.56
567.461	1185.99
567.664	1183.28
567.867	1088.15
568.07	1136
568.273	1092.22
568.475	1164.1
568.678	1109.27
568.881	1098.81
569.084	1074.2
569.287	998.83
569.489	1052.69
569.692	1104.42
569.895	1090.47
570.098	1021.5
570.3	1028.67
570.503	972.48
570.706	1025.76
570.909	1018.59
571.111	957.37
571.314	982.36
571.516	996.51
571.719	989.14
571.922	987.59
572.124	972.68
572.327	1018.01
572.529	975
572.732	957.18
572.935	988.95
573.137	1036.61
573.34	1012.2
573.542	1028.09
573.745	1004.45
573.947	1023.82
574.15	985.46
574.352	949.62
574.554	1030.99
574.757	955.43
574.959	937.22
575.162	928.11
575.364	965.31
575.566	1017.24
575.769	939.35
575.971	978.49
576.173	869.6
576.376	954.66
576.578	999.99
576.78	1030.22
576.982	883.75
577.185	937.03
577.387	910.29
577.589	880.45
577.791	975.39
577.993	967.25
578.196	921.14
578.398	931.6
578.6	928.5
578.802	881.03
579.004	899.25
579.206	883.36
579.408	953.69
579.61	907.38
579.812	941.48
580.014	902.35
580.216	888.2
580.418	919.59
580.62	867.66
580.822	877.16
581.024	915.13
581.226	929.86
581.428	894.79
581.63	946.52
581.832	913.97
582.034	965.12
582.236	928.11
582.438	947.88
582.64	965.7
582.841	981.2
583.043	1021.89
583.245	922.11
583.447	949.62
583.649	919.4
583.85	941.48
584.052	952.91
584.254	930.44
584.456	970.16
584.657	928.7
584.859	950.78
585.061	938.77
585.262	936.06
585.464	901.18
585.666	963.57
585.867	914.36
586.069	985.85
586.27	933.15
586.472	945.74
586.674	905.45
586.875	910.87
587.077	900.8
587.278	929.28
587.48	921.14
587.681	1001.16
587.883	917.07
588.084	859.33
588.285	895.95
588.487	861.66
588.688	892.27
588.89	838.6
589.091	821.75
589.292	825.23
589.494	832.02
589.695	780.48
589.896	750.64
590.098	742.12
590.299	827.75
590.5	765.95
590.702	801.6
590.903	806.83
591.104	885.68
591.305	826.01
591.507	870.38
591.708	858.56
591.909	840.35
592.11	906.41
592.311	879.87
592.512	832.98
592.714	770.21
592.915	820.39
593.116	818.07
593.317	845.19
593.518	835.12
593.719	859.91
593.92	826.59
594.121	842.28
594.322	826.4
594.523	843.64
594.724	811.09
594.925	824.07
595.126	825.62
595.327	839.77
595.528	819.23
595.729	851
595.929	830.08
596.13	818.45
596.331	855.26
596.532	831.63
596.733	857.2
596.934	885.88
597.135	843.06
597.335	828.72
597.536	807.41
597.737	869.02
597.938	812.25
598.138	843.64
598.339	837.83
598.54	865.15
598.74	864.76
598.941	851
599.142	862.43
599.342	849.45
599.543	792.3
599.744	826.59
599.944	844.22
600.145	823.68
600.345	854.88
600.546	911.84
600.746	906.41
600.947	878.51
601.147	863.79
601.348	867.66
601.548	795.01
601.749	832.98
601.949	784.16
602.15	797.53
602.35	808.18
602.551	859.72
602.751	815.16
602.951	822.91
603.152	779.9
603.352	872.31
603.552	835.89
603.753	875.61
603.953	829.88
604.153	830.66
604.354	844.22
604.554	817.68
604.754	842.87
604.954	815.55
605.155	862.43
605.355	836.67
605.555	883.94
605.755	854.1
605.955	837.63
606.155	869.02
606.356	838.41
606.556	841.12
606.756	842.09
606.956	792.1
607.156	884.52
607.356	804.89
607.556	837.83
607.756	850.81
607.956	863.6
608.156	864.56
608.356	837.25
608.556	850.81
608.756	831.24
608.956	802.37
609.156	819.81
609.356	789.78
609.556	789.2
609.755	813.03
609.955	776.8
610.155	836.86
610.355	811.28
610.555	766.33
610.755	786.48
610.954	747.54
611.154	830.27
611.354	835.31
611.554	764.59
611.753	804.12
611.953	754.13
612.153	802.95
612.352	809.35
612.552	771.95
612.752	723.9
612.951	750.25
613.151	783.58
613.351	779.32
613.55	759.94
613.75	771.57
613.949	780.09
614.149	798.11
614.348	781.06
614.548	744.83
614.747	740.37
614.947	733.98
615.146	707.24
615.346	789.97
615.545	778.93
615.745	775.44
615.944	804.12
616.144	745.02
616.343	776.41
616.542	744.83
616.742	743.47
616.941	741.34
617.14	702.2
617.34	761.68
617.539	734.75
617.738	709.18
617.938	810.7
618.137	756.84
618.336	684.77
618.535	788.03
618.734	748.12
618.934	782.03
619.133	757.23
619.332	776.02
619.531	742.5
619.73	747.93
619.929	793.27
620.128	766.53
620.328	808.18
620.527	734.56
620.726	739.6
620.925	761.88
621.124	752.97
621.323	724.49
621.522	727.78
621.721	723.9
621.92	709.57
622.119	748.32
622.318	690
622.517	731.65
622.715	740.95
622.914	661.71
623.113	741.15
623.312	684.77
623.511	738.44
623.71	712.67
623.909	678.95
624.107	749.48
624.306	641.17
624.505	676.63
624.704	700.46
624.902	691.94
625.101	709.76
625.3	701.62
625.499	693.49
625.697	686.7
625.896	671.59
626.095	696.78
626.293	663.26
626.492	637.11
626.69	736.11
626.889	691.74
627.088	690.97
627.286	655.71
627.485	682.25
627.683	655.32
627.882	698.72
628.08	612.11
628.279	650.67
628.477	715.96
628.676	609.01
628.874	690.58
629.073	643.5
629.271	621.99
629.469	660.16
629.668	658.81
629.866	646.79
630.065	620.25
630.263	675.66
630.461	615.99
630.66	651.25
630.858	665.01
631.056	681.47
631.254	682.25
631.453	628.19
631.651	713.64
631.849	674.89
632.047	647.96
632.245	652.22
632.444	664.23
632.642	678.57
632.84	672.17
633.038	654.54
633.236	622.77
633.434	630.52
633.632	601.65
633.83	634.59
634.028	695.42
634.227	666.17
634.425	735.92
634.623	626.84
634.821	653.57
635.019	677.02
635.216	638.85
635.414	671.59
635.612	674.3
635.81	640.98
636.008	727
636.206	645.63
636.404	670.82
636.602	637.3
636.8	649.7
636.997	682.05
637.195	691.55
637.393	665.01
637.591	707.24
637.789	690.77
637.986	635.36
638.184	684.96
638.382	700.07
638.58	691.55
638.777	717.51
638.975	673.92
639.173	654.74
639.37	678.57
639.568	696.78
639.765	688.45
639.963	647.96
640.161	693.1
640.358	665.39
640.556	630.13
640.753	609.21
640.951	629.16
641.148	677.6
641.346	635.17
641.543	643.31
641.741	659.77
641.938	613.47
642.136	660.74
642.333	609.79
642.531	674.89
642.728	702.98
642.925	653.77
643.123	605.72
643.32	660.94
643.517	632.07
643.715	643.11
643.912	605.33
644.109	649.89
644.306	634.78
644.504	607.46
644.701	656.29
644.898	654.54
645.095	632.26
645.293	641.17
645.49	652.02
645.687	634.01
645.884	657.45
646.081	552.24
646.278	604.94
646.475	609.59
646.672	606.49
646.87	655.51
647.067	623.16
647.264	626.84
647.461	574.14
647.658	568.71
647.855	638.66
648.052	589.25
648.249	530.35
648.446	592.16
648.642	555.15
648.839	570.26
649.036	567.55
649.233	534.42
649.43	531.71
649.627	503.81
649.824	585.37
650.021	516.79
650.217	542.56
650.414	544.3
650.611	604.17
650.808	569.1
651.004	590.61
651.201	595.45
651.398	623.54
651.595	582.28
651.791	532.09
651.988	609.79
652.185	570.26
652.381	584.79
652.578	525.89
652.775	557.67
652.971	573.94
653.168	570.46
653.364	577.63
653.561	515.24
653.757	559.41
653.954	581.11
654.15	572.59
654.347	603.2
654.543	559.99
654.74	531.71
654.936	536.16
655.133	567.94
655.329	547.79
655.525	546.24
655.722	559.03
655.918	534.61
656.115	569.88
656.311	479.98
656.507	489.86
656.704	470.48
656.9	489.66
657.096	491.21
657.292	480.17
657.489	551.47
657.685	508.26
657.881	495.09
658.077	523.38
658.273	519.69
658.47	590.99
658.666	547.21
658.862	595.45
659.058	540.81
659.254	555.34
659.45	532.68
659.646	535.78
659.842	525.51
660.038	572.78
660.234	518.92
660.43	554.96
660.626	587.12
660.822	574.14
661.018	569.1
661.214	512.33
661.41	507.49
661.606	565.42
661.802	561.74
661.998	542.17
662.194	540.43
662.39	546.63
662.586	561.74
662.781	570.65
662.977	571.43
663.173	545.08
663.369	560.19
663.564	560.38
663.76	569.68
663.956	528.99
664.152	576.66
664.347	479.98
664.543	525.31
664.739	514.66
664.934	493.73
665.13	524.93
665.326	545.85
665.521	541.39
665.717	503.81
665.912	485.79
666.108	463.31
666.304	498.19
666.499	508.26
666.695	458.47
666.89	503.23
667.086	547.59
667.281	574.33
667.477	540.23
667.672	515.04
667.867	492.76
668.063	530.74
668.258	491.99
668.454	525.12
668.649	586.54
668.844	538.1
669.04	542.17
669.235	519.5
669.43	503.03
669.626	499.35
669.821	508.84
670.016	474.55
670.211	502.64
670.407	450.91
670.602	516.4
670.797	504.19
670.992	550.11
671.187	491.02
671.382	531.51
671.578	520.08
671.773	523.76
671.968	425.53
672.163	525.7
672.358	550.11
672.553	458.28
672.748	488.5
672.943	563.09
673.138	506.52
673.333	537.13
673.528	467.77
673.723	517.56
673.918	517.18
674.113	462.15
674.308	554.76
674.503	543.53
674.698	553.21
674.892	497.99
675.087	530.54
675.282	534.42
675.477	496.25
675.672	530.35
675.867	519.11
676.061	486.18
676.256	455.18
676.451	476.49
676.646	515.82
676.84	462.54
677.035	459.25
677.23	445.1
677.424	520.28
677.619	533.06
677.814	536.74
678.008	522.99
678.203	431.15
678.397	464.09
678.592	515.04
678.787	567.74
678.981	472.42
679.176	504.78
679.37	508.26
679.565	481.14
679.759	472.23
679.954	517.18
680.148	523.76
680.342	552.24
680.537	512.33
680.731	477.85
680.926	535
681.12	538.68
681.314	475.33
681.509	466.03
681.703	492.57
681.897	482.69
682.092	470.29
682.286	487.15
682.48	537.13
682.674	519.11
682.869	474.16
683.063	459.05
683.257	536.55
683.451	472.61
683.645	506.71
683.839	481.14
684.034	463.12
684.228	507.68
684.422	482.5
684.616	467.96
684.81	500.9
685.004	460.99
685.198	499.74
685.392	515.43
685.586	445.1
685.78	477.46
685.974	491.8
686.168	503.81
686.362	527.06
686.556	433.67
686.75	414.88
686.944	407.32
687.138	443.16
687.331	377.29
687.525	357.33
687.719	310.06
687.913	378.65
688.107	396.86
688.301	347.07
688.494	383.1
688.688	341.64
688.882	300.18
689.076	343.58
689.269	373.03
689.463	441.81
689.657	390.85
689.85	363.53
690.044	386.2
690.238	386.4
690.431	367.22
690.625	382.91
690.818	406.16
691.012	426.89
691.205	451.5
691.399	392.4
691.593	433.28
691.786	524.34
691.98	500.51
692.173	495.09
692.366	474.75
692.56	480.36
692.753	532.68
692.947	447.43
693.14	519.31
693.333	509.23
693.527	465.06
693.72	485.01
693.914	449.56
694.107	466.03
694.3	509.43
694.493	477.26
694.687	528.03
694.88	479.98
695.073	535.97
695.266	532.48
695.46	515.82
695.653	548.56
695.846	534.61
696.039	476.3
696.232	532.09
696.425	553.99
696.618	589.83
696.812	534.42
697.005	613.86
697.198	665.2
697.391	612.11
697.584	605.52
697.777	635.75
697.97	663.65
698.163	675.47
698.356	613.27
698.549	701.43
698.742	667.52
698.935	634.01
699.127	668.49
699.32	635.75
699.513	642.72
699.706	631.1
699.899	699.3
700.092	656.29
700.285	701.04
700.477	628.39
700.67	694.84
700.863	702.98
701.056	801.02
701.248	736.89
701.441	787.26
701.634	743.86
701.826	832.6
702.019	752.19
702.212	781.25
702.404	746.19
702.597	725.84
702.79	776.41
702.982	799.66
703.175	803.15
703.367	857.2
703.56	856.43
703.752	903.12
703.945	871.73
704.137	880.45
704.33	922.3
704.522	905.83
704.715	905.64
704.907	953.49
705.1	933.93
705.292	955.43
705.484	936.44
705.677	1015.49
705.869	954.27
706.061	995.15
706.254	1027.89
706.446	1009.29
706.638	995.93
706.831	1069.94
707.023	1011.62
707.215	1133.49
707.407	1103.46
707.599	1091.83
707.792	1160.03
707.984	1093.57
708.176	1175.53
708.368	1107.14
708.56	1191.03
708.752	1148.21
708.944	1154.02
709.136	1199.94
709.329	1194.13
709.521	1301.46
709.713	1248.96
709.905	1261.55
710.097	1266.01
710.289	1248.38
710.481	1232.68
710.672	1282.28
710.864	1294.3
711.056	1306.5
711.248	1340.8
711.44	1299.72
711.632	1301.08
711.824	1400.47
712.016	1421.59
712.207	1411.51
712.399	1406.67
712.591	1473.12
712.783	1416.94
712.975	1472.35
713.166	1416.36
713.358	1459.76
713.55	1504.12
713.741	1509.55
713.933	1491.72
714.125	1494.24
714.316	1473.9
714.508	1556.05
714.7	1525.05
714.891	1543.07
715.083	1597.51
715.274	1556.82
715.466	1566.7
715.657	1612.04
715.849	1517.88
716.04	1569.03
716.232	1499.47
716.423	1569.42
716.615	1528.73
716.806	1483.01
716.998	1460.53
717.189	1402.6
717.381	1340.21
717.572	1342.54
717.763	1362.88
717.955	1339.44
718.146	1276.67
718.337	1294.1
718.528	1277.25
718.72	1203.23
718.911	1271.63
719.102	1223.58
719.293	1293.52
719.485	1253.61
719.676	1250.51
719.867	1246.83
720.058	1263.49
720.249	1252.45
720.44	1274.34
720.632	1321.81
720.823	1367.53
721.014	1477
721.205	1456.66
721.396	1492.5
721.587	1579.69
721.778	1649.05
721.969	1632.77
722.16	1708.92
722.351	1686.83
722.542	1804.82
722.733	1846.28
722.924	1728.48
723.115	1751.54
723.305	1789.32
723.496	1758.13
723.687	1666.87
723.878	1695.16
724.069	1676.17
724.26	1714.92
724.45	1664.35
724.641	1677.14
724.832	1698.65
725.023	1699.23
725.213	1701.55
725.404	1638.39
725.595	1685.86
725.785	1665.9
725.976	1709.5
726.167	1698.84
726.357	1747.47
726.548	1838.53
726.739	1756.58
726.929	1798.23
727.12	1840.08
727.31	1860.23
727.501	1773.63
727.691	1807.92
727.882	1841.24
728.072	1891.04
728.263	1881.16
728.453	1914.67
728.644	1907.12
728.834	1898.59
729.024	1857.71
729.215	1877.09
729.405	1917.77
729.596	1963.69
729.786	1968.73
729.976	1998.37
730.167	1987.33
730.357	1978.81
730.547	1972.22
730.737	2038.29
730.928	2062.31
731.118	2075.87
731.308	2054.95
731.498	2067.54
731.688	2128.77
731.879	2125.47
732.069	2225.06
732.259	2229.71
732.449	2257.22
732.639	2350.41
732.829	2309.73
733.019	2361.84
733.209	2413.77
733.399	2396.91
733.589	2481.77
733.779	2509.28
733.969	2509.28
734.159	2591.63
734.349	2590.85
734.539	2650.53
734.729	2641.81
734.919	2662.73
735.109	2703.42
735.299	2667.38
735.488	2700.13
735.678	2688.69
735.868	2696.83
736.058	2685.79
736.248	2677.85
736.437	2651.5
736.627	2643.94
736.817	2791.38
737.007	2718.53
737.196	2777.62
737.386	2751.86
737.576	2691.6
737.765	2787.51
737.955	2787.89
738.144	2843.5
738.334	2834.39
738.524	2795.26
738.713	2805.72
738.903	2841.37
739.092	2867.33
739.282	2876.63
739.471	2860.55
739.661	2821.22
739.85	2915.57
740.04	2918.67
740.229	2952.38
740.419	2936.11
740.608	2953.93
740.797	2968.66
740.987	3017.48
741.176	3001.98
741.365	2959.75
741.555	2922.55
741.744	2994.43
741.933	3009.54
742.123	3010.51
742.312	3036.86
742.501	3072.12
742.69	3049.26
742.88	3006.44
743.069	3136.44
743.258	3063.21
743.447	3152.72
743.636	3091.3
743.825	3072.9
744.014	3097.11
744.204	3149.62
744.393	3029.3
744.582	3176.36
744.771	3180.62
744.96	3147.29
745.149	3145.36
745.338	3094.6
745.527	3159.69
745.716	3136.06
745.905	3143.23
746.094	3130.83
746.283	3193.02
746.471	3149.81
746.66	3240.87
746.849	3188.37
747.038	3254.44
747.227	3143.81
747.416	3180.23
747.604	3138.96
747.793	3151.36
747.982	3202.71
748.171	3205.22
748.359	3217.24
748.548	3190.89
748.737	3195.93
748.926	3198.06
749.114	3105.25
749.303	3199.22
749.491	3155.04
749.68	3120.17
749.869	3229.06
750.057	3163.38
750.246	3154.85
750.434	3156.59
750.623	3139.93
750.811	3122.11
751	3132.18
751.188	3148.46
751.377	3166.86
751.565	3134.51
751.754	3109.71
751.942	3065.73
752.131	3151.94
752.319	3084.13
752.507	3107.38
752.696	3132.38
752.884	3172.87
753.072	3100.6
753.261	3144.19
753.449	3133.15
753.637	3102.73
753.825	3185.46
754.014	3065.15
754.202	3128.5
754.39	3191.28
754.578	3146.13
754.766	3086.26
754.955	3059.91
755.143	3115.91
755.331	3098.86
755.519	3112.61
755.707	3125.98
755.895	3026.78
756.083	3096.53
756.271	3042.67
756.459	3075.61
756.647	3095.95
756.835	3075.41
757.023	3038.02
757.211	3042.86
757.399	3027.75
757.587	3038.99
757.775	3014.58
757.963	3057.59
758.151	3037.44
758.339	2997.14
758.526	2949.67
758.714	2990.36
758.902	2882.64
759.09	2823.35
759.278	2619.91
759.465	2429.46
759.653	2074.32
759.841	1903.44
760.028	1624.44
760.216	1401.83
760.404	1312.51
760.591	1053.27
760.779	917.46
760.967	774.08
761.154	670.04
761.342	725.45
761.529	696.78
761.717	739.21
761.905	716.54
762.092	759.55
762.28	707.63
762.467	725.84
762.655	664.81
762.842	663.26
763.029	712.47
763.217	701.04
763.404	677.79
763.592	730.69
763.779	665.01
763.966	734.75
764.154	757.42
764.341	839.57
764.528	813.03
764.716	877.74
764.903	924.24
765.09	979.84
765.277	1000.19
765.465	1182.5
765.652	1237.14
765.839	1296.04
766.026	1414.81
766.213	1474.48
766.4	1524.66
766.588	1743.01
766.775	1725.77
766.962	1816.83
767.149	1894.72
767.336	2027.24
767.523	1997.4
767.71	2107.26
767.897	2227.38
768.084	2294.03
768.271	2319.61
768.458	2357.39
768.645	2428.1
768.832	2422.87
769.019	2496.89
769.206	2474.8
769.392	2568.38
769.579	2663.51
769.766	2566.44
769.953	2606.16
770.14	2646.07
770.327	2608.1
770.513	2665.64
770.7	2778.4
770.887	2675.13
771.073	2704.39
771.26	2710.78
771.447	2674.16
771.634	2659.83
771.82	2781.31
772.007	2662.73
772.193	2710.39
772.38	2720.66
772.567	2724.34
772.753	2698.96
772.94	2730.54
773.126	2723.76
773.313	2737.52
773.499	2718.92
773.686	2711.36
773.872	2706.13
774.059	2732.87
774.245	2685.79
774.432	2685.21
774.618	2596.86
774.804	2651.11
774.991	2644.33
775.177	2676.88
775.363	2649.95
775.55	2709.23
775.736	2612.16
775.922	2662.15
776.109	2643.75
776.295	2634.06
776.481	2684.43
776.667	2676.1
776.853	2647.62
777.04	2600.35
777.226	2628.25
777.412	2691.02
777.598	2633.86
777.784	2594.73
777.97	2593.95
778.156	2627.28
778.342	2620.3
778.528	2581.17
778.715	2560.24
778.901	2580.97
779.087	2592.6
779.272	2525.95
779.458	2567.6
779.644	2553.46
779.83	2569.54
780.016	2637.55
780.202	2544.35
780.388	2563.53
780.574	2509.28
780.76	2532.92
780.946	2522.65
781.131	2559.85
781.317	2517.03
781.503	2510.64
781.689	2513.55
781.874	2588.72
782.06	2525.56
782.246	2499.4
782.432	2506.38
782.617	2535.05
782.803	2515.29
782.989	2420.55
783.174	2449.22
783.36	2426.36
783.545	2415.9
783.731	2477.7
783.916	2355.84
784.102	2417.06
784.288	2451.94
784.473	2405.82
784.659	2398.27
784.844	2439.15
785.029	2362.81
785.215	2388.77
785.4	2321.54
785.586	2408.73
785.771	2367.85
785.956	2397.11
786.142	2397.3
786.327	2350.41
786.512	2345.76
786.698	2324.06
786.883	2278.92
787.068	2319.8
787.254	2335.69
787.439	2331.04
787.624	2295.58
787.809	2271.75
787.994	2252.96
788.18	2314.18
788.365	2246.18
788.55	2283.57
788.735	2262.45
788.92	2260.71
789.105	2238.62
789.29	2276.4
789.475	2201.23
789.66	2215.56
789.845	2176.23
790.03	2165
790.215	2245.01
790.4	2219.25
790.585	2207.43
790.77	2176.23
790.955	2107.84
791.14	2199.1
791.325	2245.21
791.51	2114.82
791.695	2175.26
791.879	2161.9
792.064	2067.93
792.249	2224.28
792.434	2144.85
792.618	2147.17
792.803	2169.84
792.988	2145.04
793.173	2146.78
793.357	2178.95
793.542	2126.83
793.727	2163.64
793.911	2157.05
794.096	2170.61
794.281	2174.68
794.465	2252.57
794.65	2155.89
794.834	2233.78
795.019	2217.89
795.203	2204.33
795.388	2242.5
795.572	2269.62
795.757	2194.64
795.941	2200.26
796.126	2164.22
796.31	2112.1
796.494	2182.82
796.679	2192.31
796.863	2145.04
797.048	2236.1
797.232	2189.41
797.416	2196.58
797.601	2187.08
797.785	2232.23
797.969	2237.26
798.153	2200.26
798.338	2193.09
798.522	2219.05
798.706	2238.62
798.89	2221.76
799.074	2347.31
799.258	2263.42
799.443	2192.31
799.627	2236.88
799.811	2249.08
799.995	2223.9
800.179	2182.82
800.363	2189.8
800.547	2229.71
800.731	2253.54
800.915	2135.16
801.099	2188.44
801.283	2191.93
801.467	2189.02
801.651	2153.95
801.835	2222.54
802.019	2202.58
802.202	2234.36
802.386	2140.2
802.57	2162.67
802.754	2195.61
802.938	2153.76
803.121	2188.63
803.305	2223.51
803.489	2200.65
803.673	2220.41
803.856	2217.31
804.04	2164.41
804.224	2217.89
804.407	2148.33
804.591	2159.18
804.775	2198.13
804.958	2219.63
805.142	2277.95
805.326	2180.11
805.509	2198.32
805.693	2214.21
805.876	2226.22
806.06	2195.61
806.243	2241.91
806.427	2257.8
806.61	2309.92
806.794	2194.83
806.977	2259.93
807.16	2252.18
807.344	2244.04
807.527	2238.23
807.71	2176.62
807.894	2204.91
808.077	2215.95
808.26	2190.76
808.444	2146.01
808.627	2278.73
808.81	2170.81
808.993	2121.98
809.177	2110.17
809.36	2171
809.543	2141.75
809.726	2072.97
809.909	2091.76
810.092	2046.04
810.276	2050.88
810.459	2072.58
810.642	2069.67
810.825	1994.69
811.008	2059.4
811.191	1894.52
811.374	1958.85
811.557	1982.49
811.74	2051.07
811.923	1927.46
812.106	1915.26
812.289	1883.87
812.472	1901.89
812.654	1896.46
812.837	1873.02
813.02	1830.59
813.203	1841.05
813.386	1683.15
813.569	1698.45
813.751	1644.2
813.934	1681.21
814.117	1666.29
814.3	1660.09
814.482	1601.39
814.665	1534.93
814.848	1536.48
815.03	1450.07
815.213	1470.61
815.396	1446.78
815.578	1441.74
815.761	1450.84
815.943	1482.62
816.126	1408.41
816.309	1356.1
816.491	1306.31
816.674	1270.47
816.856	1321.42
817.039	1308.63
817.221	1397.37
817.403	1326.07
817.586	1331.5
817.768	1388.46
817.951	1314.45
818.133	1293.13
818.315	1307.47
818.498	1358.23
818.68	1406.67
818.862	1386.13
819.045	1388.65
819.227	1381.09
819.409	1384.78
819.591	1386.33
819.774	1329.56
819.956	1363.08
820.138	1391.94
820.32	1426.63
820.502	1462.86
820.684	1511.29
820.866	1501.8
821.048	1562.44
821.231	1546.75
821.413	1520.98
821.595	1545.78
821.777	1546.55
821.959	1499.28
822.141	1581.82
822.323	1440.38
822.505	1420.23
822.686	1372.96
822.868	1309.02
823.05	1249.93
823.232	1216.41
823.414	1161.19
823.596	1193.55
823.778	1192.39
823.96	1217.57
824.141	1205.37
824.323	1255.74
824.505	1326.65
824.687	1338.08
824.868	1418.29
825.05	1475.64
825.232	1487.85
825.413	1536.67
825.595	1539.97
825.777	1461.11
825.958	1494.24
826.14	1505.87
826.321	1519.43
826.503	1492.31
826.685	1534.16
826.866	1518.27
827.048	1532.02
827.229	1456.66
827.411	1449.1
827.592	1420.04
827.773	1428.37
827.955	1334.79
828.136	1356.1
828.318	1329.75
828.499	1365.4
828.68	1299.53
828.862	1318.9
829.043	1400.28
829.224	1320.45
829.406	1344.48
829.587	1339.63
829.768	1324.13
829.949	1319.68
830.131	1325.68
830.312	1371.99
830.493	1328.01
830.674	1397.76
830.855	1311.35
831.036	1364.63
831.218	1391.17
831.399	1401.44
831.58	1381.87
831.761	1340.41
831.942	1371.02
832.123	1352.03
832.304	1277.44
832.485	1318.71
832.666	1346.22
832.847	1386.52
833.028	1350.1
833.209	1367.92
833.389	1351.26
833.57	1278.22
833.751	1311.54
833.932	1367.92
834.113	1364.82
834.294	1329.36
834.475	1388.26
834.655	1441.16
834.836	1405.31
835.017	1359.59
835.198	1334.6
835.378	1413.45
835.559	1425.08
835.74	1344.28
835.92	1389.43
836.101	1339.63
836.281	1402.21
836.462	1410.54
836.643	1438.44
836.823	1433.21
837.004	1446.19
837.184	1458.59
837.365	1428.37
837.545	1463.05
837.726	1390.98
837.906	1435.34
838.087	1425.85
838.267	1431.47
838.448	1392.14
838.628	1421.78
838.808	1407.83
838.989	1453.17
839.169	1388.46
839.349	1439.99
839.53	1461.31
839.71	1401.24
839.89	1393.11
840.07	1458.01
840.251	1429.73
840.431	1459.56
840.611	1436.12
840.791	1407.06
840.971	1415.58
841.151	1394.66
841.332	1394.08
841.512	1452.2
841.692	1365.01
841.872	1395.82
842.052	1429.14
842.232	1467.7
842.412	1370.44
842.592	1421.2
842.772	1426.04
842.952	1415
843.132	1378.77
843.312	1363.66
843.492	1383.42
843.672	1436.51
843.851	1342.35
844.031	1385.16
844.211	1364.24
844.391	1378.96
844.571	1402.21
844.751	1373.93
844.93	1359.98
845.11	1321.81
845.29	1384
845.47	1395.24
845.649	1375.86
845.829	1405.31
846.009	1399.11
846.188	1395.82
846.368	1362.3
846.547	1374.7
846.727	1410.35
846.907	1320.65
847.086	1377.8
847.266	1371.41
847.445	1356.1
847.625	1318.32
847.804	1326.46
847.984	1357.65
848.163	1337.5
848.343	1320.06
848.522	1345.83
848.701	1356.68
848.881	1279.96
849.06	1336.73
849.239	1318.71
849.419	1350.87
849.598	1256.9
849.777	1263.3
849.957	1274.92
850.136	1231.72
850.315	1219.51
850.494	1245.08
850.674	1251.09
850.853	1289.06
851.032	1222.61
851.211	1297.59
851.39	1241.02
851.569	1209.24
851.748	1245.47
851.927	1272.21
852.107	1262.72
852.286	1224.35
852.465	1194.13
852.644	1282.86
852.823	1239.47
853.002	1216.6
853.181	1242.37
853.359	1262.52
853.538	1176.5
853.717	1245.47
853.896	1176.11
854.075	1087.37
854.254	1108.69
854.433	1055.21
854.611	1086.6
854.79	1017.04
854.969	1090.09
855.148	1099.39
855.327	1071.1
855.505	1089.51
855.684	1111.59
855.863	1119.73
856.041	1112.17
856.22	1143.75
856.399	1125.15
856.577	1223.38
856.756	1152.09
856.934	1269.88
857.113	1261.17
857.291	1207.3
857.47	1179.02
857.648	1178.05
857.827	1179.6
858.005	1235.78
858.184	1168.36
858.362	1233.07
858.541	1170.69
858.719	1189.48
858.898	1176.5
859.076	1145.5
859.254	1225.13
859.433	1146.08
859.611	1160.8
859.789	1139.88
859.967	1206.53
860.146	1207.11
860.324	1160.22
860.502	1148.99
860.68	1118.18
860.859	1145.69
861.037	1155.38
861.215	1179.4
861.393	1164.68
861.571	1163.9
861.749	1127.09
861.927	1163.9
862.105	1143.56
862.283	1123.41
862.461	1119.54
862.639	1112.37
862.817	1140.07
862.995	1119.54
863.173	1097.06
863.351	1121.28
863.529	1132.13
863.707	1150.92
863.885	1126.12
864.063	1065.48
864.241	1096.87
864.418	1185.22
864.596	1095.32
864.774	1068.97
864.952	1097.64
865.129	1099.77
865.307	1060.64
865.485	1033.9
865.663	1114.89
865.84	1040.1
866.018	1049.21
866.196	930.63
866.373	960.08
866.551	913.2
866.728	888.2
866.906	916.1
867.084	949.23
867.261	958.14
867.439	1001.93
867.616	1015.3
867.794	982.94
867.971	1004.84
868.149	987.21
868.326	1068.97
868.503	1009.49
868.681	1029.25
868.858	1020.72
869.035	976.36
869.213	1014.72
869.39	974.42
869.567	1079.24
869.745	1029.25
869.922	1028.67
870.099	1044.94
870.276	1015.11
870.454	1034.29
870.631	1005.03
870.808	1005.42
870.985	1042.81
871.162	1108.1
871.339	1047.27
871.517	998.06
871.694	953.69
871.871	991.86
872.048	984.49
872.225	982.36
872.402	999.8
872.579	953.49
872.756	1001.54
872.933	966.28
873.11	962.02
873.287	1007.36
873.463	927.15
873.64	956.98
873.817	970.74
873.994	956.59
874.171	939.93
874.348	979.84
874.524	915.33
874.701	971.13
874.878	911.06
875.055	977.71
875.231	972.68
875.408	959.31
875.585	889.95
875.762	925.4
875.938	917.26
876.115	932.76
876.291	901.18
876.468	917.65
876.645	871.35
876.821	887.23
876.998	906.8
877.174	920.36
877.351	925.4
877.527	859.91
877.704	914.36
877.88	927.73
878.057	862.24
878.233	953.11
878.409	915.52
878.586	901.57
878.762	884.52
878.938	897.89
879.115	798.3
879.291	862.82
879.467	854.3
879.644	874.64
879.82	921.33
879.996	871.73
880.172	810.9
880.349	866.89
880.525	894.6
880.701	825.43
880.877	814.97
881.053	843.45
881.229	882.58
881.405	896.34
881.581	820.97
881.757	841.32
881.933	878.13
882.109	852.55
882.285	859.72
882.461	797.72
882.637	865.73
882.813	797.72
882.989	835.7
883.165	865.73
883.341	820.2
883.517	929.66
883.693	848.68
883.869	872.7
884.044	824.85
884.22	873.28
884.396	890.14
884.572	871.35
884.747	873.86
884.923	866.5
885.099	882.58
885.275	898.66
885.45	835.5
885.626	819.03
885.801	818.07
885.977	819.03
886.153	796.56
886.328	829.88
886.504	812.25
886.679	848.29
886.855	808.38
887.03	857.2
887.206	828.92
887.381	832.6
887.557	875.41
887.732	831.43
887.908	850.03
888.083	871.73
888.258	803.34
888.434	816.13
888.609	858.95
888.784	863.01
888.96	829.69
889.135	818.45
889.31	812.25
889.485	851.78
889.661	852.16
889.836	872.12
890.011	842.87
890.186	852.75
890.361	823.3
890.537	861.27
890.712	860.11
890.887	824.65
891.062	880.84
891.237	897.7
891.412	806.44
891.587	825.62
891.762	849.45
891.937	888.4
892.112	766.33
892.287	821.75
892.462	756.07
892.637	754.13
892.812	720.42
892.987	770.6
893.161	767.69
893.336	758.39
893.511	776.6
893.686	742.31
893.861	757.23
894.035	774.86
894.21	753.35
894.385	712.47
894.56	737.08
894.734	681.09
894.909	698.52
895.084	692.9
895.258	673.53
895.433	695.42
895.608	651.25
895.782	628
895.957	616.57
896.131	637.3
896.306	570.65
896.48	600.1
896.655	604.75
896.829	554.76
897.004	570.84
897.178	550.69
897.353	545.46
897.527	605.52
897.701	592.54
897.876	506.33
898.05	580.73
898.224	560.58
898.399	584.99
898.573	559.8
898.747	439.48
898.921	479.01
899.096	423.79
899.27	432.9
899.444	442.78
899.618	452.08
899.792	490.83
899.967	460.41
900.141	528.22
900.315	458.28
900.489	461.57
900.663	491.8
900.837	483.08
901.011	435.03
901.185	536.36
901.359	498.19
901.533	495.67
901.707	473.97
901.881	483.66
902.055	426.5
902.229	470.48
902.403	501.09
902.576	479.59
902.75	462.54
902.924	616.18
903.098	550.69
903.272	561.74
903.446	616.57
903.619	564.06
903.793	600.1
903.967	583.44
904.14	597.97
904.314	621.99
904.488	587.51
904.661	637.49
904.835	605.14
905.009	648.73
905.182	655.32
905.356	628.77
905.529	620.83
905.703	571.04
905.876	595.45
906.05	551.86
906.223	559.61
906.397	489.86
906.57	509.81
906.744	463.12
906.917	507.88
907.09	491.02
907.264	476.3
907.437	442.78
907.61	440.26
907.784	412.55
907.957	467.58
908.13	439.68
908.304	478.43
908.477	424.76
908.65	446.65
908.823	391.82
908.996	473.2
909.17	428.63
909.343	416.62
909.516	418.36
909.689	427.47
909.862	389.5
910.035	422.24
910.208	407.9
910.381	392.02
910.554	479.4
910.727	407.52
910.9	386.59
911.073	410.42
911.246	473.58
911.419	480.17
911.592	464.09
911.765	412.75
911.938	411.78
912.11	417.4
912.283	416.43
912.456	469.32
912.629	416.81
912.802	421.66
912.974	376.13
913.147	332.15
913.32	312.58
913.493	322.85
913.665	343
913.838	365.08
914.01	353.27
914.183	378.45
914.356	349.39
914.528	388.33
914.701	423.6
914.873	406.55
915.046	369.54
915.218	328.85
915.391	295.14
915.563	305.41
915.736	365.67
915.908	382.33
916.081	371.48
916.253	338.54
916.425	343.97
916.598	358.3
916.77	378.07
916.942	321.49
917.115	289.33
917.287	328.47
917.459	345.71
917.632	303.67
917.804	243.6
917.976	336.22
918.148	312.97
918.32	367.22
918.493	361.02
918.665	407.13
918.837	374.19
919.009	429.99
919.181	404.8
919.353	383.1
919.525	375.16
919.697	365.86
919.869	382.33
920.041	428.63
920.213	448.4
920.385	436.38
920.557	394.53
920.729	417.01
920.901	387.56
921.073	398.41
921.244	360.24
921.416	422.05
921.588	395.7
921.76	379.62
921.932	425.53
922.103	372.45
922.275	357.33
922.447	383.68
922.619	335.63
922.79	391.05
922.962	371.67
923.134	369.73
923.305	333.5
923.477	319.17
923.648	315.1
923.82	342.22
923.991	309.67
924.163	293.98
924.335	342.61
924.506	296.11
924.677	352.3
924.849	314.32
925.02	347.45
925.192	335.25
925.363	337.96
925.535	337.57
925.706	308.12
925.877	370.9
926.049	311.8
926.22	329.82
926.391	305.02
926.562	371.28
926.734	320.91
926.905	344.16
927.076	286.62
927.247	316.07
927.419	255.42
927.59	264.14
927.761	273.83
927.932	262.59
928.103	264.34
928.274	208.92
928.445	217.26
928.616	246.51
928.787	250.97
928.958	275.19
929.129	240.31
929.3	226.17
929.471	166.3
929.642	168.24
929.813	141.69
929.984	196.14
930.155	136.46
930.326	198.66
930.496	142.66
930.667	98.49
930.838	131.62
931.009	117.67
931.18	111.66
931.35	110.11
931.521	150.41
931.692	75.82
931.863	43.27
932.033	107.59
932.204	98.1
932.374	84.15
932.545	78.53
932.716	112.63
932.886	97.71
933.057	45.4
933.227	22.54
933.398	129.88
933.568	39.98
933.739	-13.11
933.909	7.81
934.08	103.53
934.25	-12.34
934.421	6.26
934.591	67.1
934.761	3.75
934.932	9.36
935.102	35.91
935.272	30.87
935.443	21.96
935.613	27.77
935.783	63.03
935.953	11.5
936.123	138.59
936.294	12.46
936.464	5.68
936.634	37.26
936.804	2.97
936.974	-12.92
937.144	19.83
937.314	29.9
937.484	15.56
937.655	2
937.825	72.91
937.995	18.66
938.165	58.96
938.334	17.89
938.504	35.52
938.674	36.49
938.844	51.8
939.014	93.06
939.184	63.03
939.354	105.46
939.524	118.25
939.694	46.18
939.863	74.46
940.033	121.54
940.203	122.13
940.373	82.41
940.542	93.64
940.712	64.39
940.882	72.91
941.051	93.64
941.221	115.73
941.391	113.21
941.56	55.48
941.73	50.83
941.899	145.38
942.069	63.61
942.238	95.19
942.408	53.54
942.577	76.21
942.747	66.13
942.916	24.28
943.086	39.78
943.255	96.94
943.425	66.52
943.594	44.24
943.763	-16.02
943.933	24.48
944.102	-2.07
944.271	46.56
944.441	81.44
944.61	13.05
944.779	45.79
944.948	149.44
945.117	35.33
945.287	59.93
945.456	-4.78
945.625	25.64
945.794	65.16
945.963	43.66
946.132	63.61
946.301	45.21
946.47	74.08
946.639	-5.94
946.808	30.29
946.977	80.08
947.146	93.84
947.315	53.35
947.484	77.37
947.653	66.13
947.822	18.86
947.991	26.22
948.16	106.63
948.329	89.58
948.498	43.46
948.666	21.18
948.835	73.88
949.004	27.38
949.173	-6.91
949.341	52.76
949.51	80.86
949.679	99.26
949.847	75.63
950.016	111.47
950.185	97.91
950.353	9.56
950.522	28.93
950.69	97.13
950.859	29.71
951.028	70.01
951.196	60.51
951.365	44.05
951.533	31.45
951.701	80.28
951.87	96.74
952.038	25.83
952.207	69.23
952.375	109.53
952.543	35.52
952.712	49.08
952.88	30.87
953.048	73.11
953.217	63.23
953.385	41.91
953.553	93.45
953.721	38.43
953.89	59.16
954.058	-0.9
954.226	48.5
954.394	43.08
954.562	-4.2
954.73	23.31
954.898	32.42
955.067	97.33
955.235	37.85
955.403	83.76
955.571	97.33
955.739	82.41
955.907	39.78
956.075	43.08
956.243	34.94
956.41	69.43
956.578	10.53
956.746	8.2
956.914	17.31
957.082	46.76
957.25	69.62
957.418	33.39
957.585	68.84
957.753	99.46
957.921	8.98
958.089	32.42
958.256	71.56
958.424	79.11
958.592	68.07
958.759	20.99
958.927	92.48
959.095	28.93
959.262	51.6
959.43	68.65
959.597	54.51
959.765	56.25
959.932	21.18
960.1	79.69
960.267	57.03
960.435	55.48
960.602	118.06
960.77	31.26
960.937	17.31
961.104	83.18
961.272	12.85
961.439	34.16
961.606	63.61
961.774	87.64
961.941	34.94
962.108	67.1
962.275	69.04
962.443	94.81
962.61	67.68
962.777	133.36
962.944	86.48
963.111	59.54
963.278	87.64
963.446	70.59
963.613	57.61
963.78	77.56
963.947	88.41
964.114	78.53
964.281	140.34
964.448	83.96
964.615	44.43
964.782	66.33
964.949	94.42
965.116	99.84
965.282	112.63
965.449	51.21
965.616	43.85
965.783	79.89
965.95	75.63
966.117	30.1
966.283	52.96
966.45	60.9
966.617	97.13
966.784	131.04
966.95	110.89
967.117	109.34
967.284	33.39
967.45	58.19
967.617	137.24
967.784	110.89
967.95	108.56
968.117	103.33
968.283	119.8
968.45	156.22
968.616	91.13
968.783	111.66
968.949	112.63
969.116	96.74
969.282	101.39
969.449	82.02
969.615	96.94
969.781	36.68
969.948	73.11
970.114	61.68
970.28	155.45
970.447	89.77
970.613	134.53
970.779	86.28
970.945	125.23
971.112	100.81
971.278	68.26
971.444	82.99
971.61	105.08
971.776	74.66
971.942	86.86
972.108	82.99
972.275	67.68
972.441	90.74
972.607	161.07
972.773	93.64
972.939	103.72
973.105	81.83
973.271	50.25
973.437	74.46
973.602	75.24
973.768	97.33
973.934	78.92
974.1	91.13
974.266	22.54
974.432	88.61
974.598	56.06
974.763	109.34
974.929	60.71
975.095	141.5
975.261	47.34
975.426	52.96
975.592	93.45
975.758	162.42
975.923	46.18
976.089	59.74
976.255	97.52
976.42	99.26
976.586	89.38
976.751	85.12
976.917	172.5
977.082	76.98
977.248	31.84
977.413	25.45
977.579	64.58
977.744	96.55
977.91	43.46
978.075	62.06
978.24	95.97
978.406	90.74
978.571	65.16
978.736	55.67
978.902	83.76
979.067	55.48
979.232	30.68
979.397	72.91
979.563	115.73
979.728	55.09
979.893	91.71
980.058	40.75
980.223	120.77
980.388	77.95
980.554	67.49
980.719	42.3
980.884	65.74
981.049	100.62
981.214	53.93
981.379	86.09
981.544	88.99
981.709	76.98
981.874	71.56
982.039	67.88
982.204	115.93
982.368	76.4
982.533	45.4
982.698	104.3
982.863	128.52
983.028	53.93
983.193	85.12
983.357	77.56
983.522	79.69
983.687	62.64
983.852	38.62
984.016	84.34
984.181	88.8
984.346	102.56
984.51	92.09
984.675	82.79
984.839	78.34
985.004	101.39
985.168	131.43
985.333	67.29
985.498	80.86
985.662	102.56
985.827	113.02
985.991	74.66
986.155	64
986.32	98.88
986.484	133.56
986.649	87.64
986.813	25.06
986.977	82.41
987.142	86.67
987.306	26.8
987.47	63.81
987.634	57.41
987.799	74.27
987.963	64.78
988.127	100.04
988.291	139.76
988.455	67.68
988.62	94.23
988.784	90.93
988.948	111.47
989.112	41.91
989.276	83.18
989.44	64.39
989.604	38.43
989.768	57.22
989.932	145.18
990.096	50.83
990.26	55.09
990.424	52.96
990.588	79.5
990.752	139.37
990.915	94.03
991.079	60.13
991.243	43.66
991.407	90.93
991.571	71.17
991.734	89.19
991.898	95
992.062	153.32
992.226	70.2
992.389	64
992.553	14.01
992.717	43.08
992.88	36.1
993.044	87.83
993.207	73.3
993.371	101.98
993.535	79.31
993.698	80.28
993.862	75.43
994.025	106.63
994.189	70.2
994.352	64.19
994.515	98.49
994.679	99.65
994.842	42.3
995.006	106.63
995.169	32.03
995.332	53.73
995.496	81.63
995.659	22.15
995.822	67.49
995.985	58.58
996.149	102.17
996.312	69.43
996.475	105.08
996.638	35.52
996.801	102.75
996.964	116.31
997.128	50.44
997.291	28.35
997.454	70.39
997.617	28.93
997.78	107.4
997.943	49.66
998.106	89.58
998.269	24.48
998.432	55.28
998.595	53.93
998.758	30.1
998.92	43.27
999.083	14.98
999.246	67.68
999.409	47.53
999.572	14.98
999.735	30.1
999.897	86.09
1000.06	46.18
1000.223	63.23
1000.386	70.98
1000.548	86.09
1000.711	73.49
1000.874	58.19
1001.036	39.4
1001.199	84.34
1001.361	32.61
1001.524	28.16
1001.687	73.88
1001.849	22.54
1002.012	82.79
1002.174	33.78
1002.337	66.52
1002.499	40.75
1002.661	94.03
1002.824	20.6
1002.986	26.03
1003.149	55.86
1003.311	48.89
1003.473	97.52
1003.636	33.58
1003.798	74.27
1003.96	70.2
1004.123	56.25
1004.285	30.1
1004.447	29.51
1004.609	56.83
1004.771	89.96
1004.933	-1.1
1005.096	6.26
1005.258	10.91
1005.42	23.31
1005.582	72.53
1005.744	45.21
1005.906	9.56
1006.068	48.31
1006.23	10.33
1006.392	-1.68
1006.554	-2.65
1006.716	76.98
1006.878	59.74
1007.04	-4
1007.202	60.71
1007.363	55.67
1007.525	46.37
1007.687	57.61
1007.849	98.1
1008.011	-5.75
1008.172	8.01
1008.334	36.68
1008.496	63.23
1008.658	-10.2
1008.819	12.85
1008.981	3.55
1009.143	24.48
1009.304	23.51
1009.466	63.42
1009.627	74.27
1009.789	117.09
1009.95	57.8
1010.112	14.6
1010.273	41.14
1010.435	33.2
1010.596	32.81
1010.758	32.23
1010.919	14.21
1011.081	1.23
1011.242	39.98
1011.403	48.7
1011.565	16.53
1011.726	33.39
1011.887	-3.62
1012.049	36.1
1012.21	71.75
1012.371	64.19
1012.532	-48.76
1012.693	37.85
1012.855	21.18
1013.016	23.12
1013.177	54.9
1013.338	21.18
1013.499	102.56
1013.66	33.39
1013.821	42.3
1013.982	13.05
1014.143	43.08
1014.304	9.36
1014.465	50.44
1014.626	68.84
1014.787	34.16
1014.948	117.48
1015.109	-18.73
1015.27	54.31
1015.431	35.33
1015.592	8.4
1015.752	63.23
1015.913	39.59
1016.074	41.91
1016.235	31.65
1016.395	17.11
1016.556	9.17
1016.717	28.35
1016.877	60.9
1017.038	22.93
1017.199	41.72
1017.359	12.27
1017.52	45.01
1017.681	33.78
1017.841	24.48
1018.002	12.27
1018.162	20.41
1018.323	85.31
1018.483	33.39
1018.644	22.54
1018.804	-6.52
1018.964	5.1
1019.125	6.26
1019.285	44.63
1019.446	-5.75
1019.606	-19.89
1019.766	-22.6
1019.926	54.7
1020.087	30.1
1020.247	-0.52
1020.407	37.26
1020.567	55.28
1020.728	20.41
1020.888	0.26
1021.048	5.1
1021.208	20.02
1021.368	7.23
1021.528	16.92
1021.688	52.57
1021.848	39.98
1022.008	23.12
1022.168	-3.23
1022.328	34.55
1022.488	36.49
1022.648	12.46
1022.808	27.19
1022.968	34.94
1023.128	18.86
1023.288	6.46
1023.448	15.95
1023.608	55.09
1023.767	29.9
1023.927	1.23
1024.087	-4.97
1024.247	-9.62
1024.406	17.7
1024.566	10.33
1024.726	-11.56
1024.885	4.71
1025.045	47.53
1025.205	15.95
1025.364	16.92
1025.524	46.18
1025.683	-1.1
1025.843	30.29
1026.003	-1.68
1026.162	48.31
1026.321	69.04
1026.481	27.96
1026.64	-25.7
1026.8	22.35
1026.959	-4.97
1027.119	16.15
1027.278	6.07
1027.437	0.45
1027.597	33.78
1027.756	9.75
1027.915	38.62
1028.074	16.92
1028.234	-13.11
1028.393	8.4
1028.552	-0.71
1028.711	-60
1028.87	30.1
1029.03	-25.7
1029.189	19.05
1029.348	-69.1
1029.507	-2.84
1029.666	45.21
1029.825	-22.02
1029.984	10.33
1030.143	35.33
1030.302	4.13
1030.461	-49.15
1030.62	22.93
1030.779	44.63
1030.938	-1.87
1031.097	-23.38
1031.255	30.1
1031.414	56.45
1031.573	49.47
1031.732	-38.3
1031.891	-0.32
1032.049	49.47
1032.208	6.65
1032.367	-28.22
1032.525	5.3
1032.684	10.53
1032.843	3.55
1033.001	-37.13
1033.16	121.54
1033.319	52.57
1033.477	31.06
1033.636	-7.1
1033.794	-47.4
1033.953	28.16
1034.111	46.95
1034.27	14.6
1034.428	26.03
1034.587	-15.24
1034.745	16.53
1034.903	25.45
1035.062	43.08
1035.22	-26.09
1035.378	55.67
1035.537	0.45
1035.695	10.91
1035.853	26.41
1036.011	36.1
1036.17	19.05
1036.328	-36.36
1036.486	5.3
1036.644	13.05
1036.802	-63.29
1036.96	-3.81
1037.119	11.3
1037.277	-20.86
1037.435	-22.99
1037.593	-19.12
1037.751	-12.72
1037.909	40.17
1038.067	40.17
