Data from oakcork_FLMT105791__40__17-27-15-066.txt Node

Date: Mon Mar 20 17:27:15 GMT 2023
User: antho
Spectrometer: FLMT10579
Trigger mode: 0
Integration Time (sec): 1.000000E-1
Scans to average: 10
Electric dark correction enabled: true
Nonlinearity correction enabled: false
Boxcar width: 0
XAxis mode: Wavelengths
Number of Pixels in Spectrum: 3648
>>>>>Begin Spectral Data<<<<<
345.248	-156.73
345.464	-156.73
345.681	-156.73
345.898	-152.27
346.114	-142.58
346.331	-34.86
346.548	14.93
346.764	-3.08
346.981	7.18
347.197	-24.01
347.414	13.77
347.631	-18
347.847	87.2
348.064	-4.63
348.28	8.54
348.497	-33.7
348.713	-13.35
348.93	38.18
349.146	37.6
349.363	14.35
349.579	36.83
349.796	18.42
350.012	5.63
350.229	21.33
350.445	37.6
350.661	-6.77
350.878	-4.44
351.094	31.21
351.311	25.01
351.527	38.77
351.743	-26.53
351.96	37.8
352.176	66.08
352.392	41.09
352.609	50.39
352.825	2.15
353.041	20.36
353.257	5.83
353.474	25.78
353.69	37.8
353.906	13.19
354.122	-18.78
354.339	50.2
354.555	33.53
354.771	-17.61
354.987	78.68
355.203	62.21
355.42	-8.12
355.636	9.12
355.852	1.76
356.068	19
356.284	-8.31
356.5	80.23
356.716	38.77
356.932	40.12
357.148	50.97
357.364	19.58
357.58	75.19
357.796	95.92
358.012	45.35
358.228	34.12
358.444	-18.58
358.66	60.85
358.876	48.84
359.092	-10.06
359.308	23.85
359.524	50.39
359.74	-15.68
359.956	-7.35
360.172	27.72
360.388	48.26
360.604	17.07
360.819	103.86
361.035	42.25
361.251	52.52
361.467	-6.96
361.683	46.52
361.898	19.97
362.114	42.45
362.33	29.66
362.546	33.73
362.762	16.1
362.977	45.74
363.193	-6.77
363.409	72.87
363.624	-13.93
363.84	4.28
364.056	-4.44
364.271	40.7
364.487	45.93
364.703	32.76
364.918	11.83
365.134	22.49
365.35	7.77
365.565	140.48
365.781	29.27
365.996	43.61
366.212	93.79
366.427	62.79
366.643	5.05
366.858	26.95
367.074	-0.18
367.289	76.55
367.505	119.36
367.72	-27.3
367.936	31.6
368.151	51.75
368.367	84.1
368.582	38.18
368.798	21.52
369.013	83.33
369.228	48.26
369.444	56.98
369.659	94.76
369.874	56.4
370.09	81.2
370.305	-24.78
370.52	16.87
370.736	64.92
370.951	25.4
371.166	84.68
371.381	87.01
371.597	71.12
371.812	16.1
372.027	15.32
372.242	44.77
372.458	87.59
372.673	16.68
372.888	38.96
373.103	45.55
373.318	130.21
373.533	70.93
373.749	49.62
373.964	15.13
374.179	80.81
374.394	13
374.609	83.33
374.824	-2.5
375.039	105.22
375.254	22.88
375.469	77.52
375.684	32.76
375.899	81
376.114	35.28
376.329	70.15
376.544	66.28
376.759	89.53
376.974	6.6
377.189	36.63
377.404	14.93
377.619	68.99
377.834	11.83
378.049	-1.53
378.264	-0.57
378.478	37.41
378.693	8.15
378.908	71.51
379.123	16.1
379.338	78.68
379.553	54.27
379.767	63.18
379.982	60.47
380.197	63.37
380.412	41.09
380.626	57.37
380.841	110.45
381.056	53.68
381.271	81.39
381.485	11.25
381.7	14.35
381.915	57.95
382.129	29.27
382.344	50.78
382.559	26.75
382.773	96.31
382.988	-16.84
383.202	51.94
383.417	24.04
383.632	135.25
383.846	51.17
384.061	50
384.275	22.68
384.49	60.66
384.704	63.57
384.919	56.4
385.133	70.54
385.348	65.12
385.562	9.51
385.777	92.05
385.991	39.54
386.206	41.09
386.42	18.81
386.634	84.68
386.849	59.88
387.063	49.23
387.277	11.45
387.492	48.07
387.706	29.27
387.92	12.03
388.135	62.6
388.349	66.47
388.563	95.73
388.778	58.92
388.992	62.6
389.206	90.11
389.42	128.66
389.635	65.5
389.849	102.12
390.063	110.45
390.277	86.43
390.491	88.56
390.706	61.63
390.92	102.12
391.134	77.9
391.348	77.71
391.562	3.7
391.776	63.76
391.99	35.28
392.205	100.57
392.419	36.25
392.633	75.77
392.847	104.45
393.061	5.05
393.275	117.43
393.489	48.26
393.703	59.69
393.917	93.98
394.131	11.25
394.345	81.97
394.559	86.43
394.773	56.59
394.986	74.03
395.2	75.58
395.414	86.81
395.628	42.83
395.842	82.75
396.056	69.57
396.27	16.68
396.484	94.37
396.697	63.37
396.911	100.38
397.125	89.91
397.339	106.77
397.553	85.26
397.766	119.56
397.98	109.1
398.194	103.09
398.408	65.12
398.621	107.16
398.835	93.21
399.049	94.37
399.262	141.65
399.476	129.44
399.69	129.63
399.903	151.91
400.117	84.49
400.331	104.06
400.544	62.98
400.758	198.22
400.971	124.6
401.185	103.86
401.398	69.77
401.612	150.36
401.826	149.78
402.039	116.65
402.253	86.81
402.466	151.33
402.68	101.15
402.893	137.96
403.106	128.86
403.32	106.58
403.533	136.22
403.747	124.98
403.96	122.46
404.174	139.71
404.387	92.63
404.6	110.26
404.814	142.23
405.027	134.09
405.24	105.61
405.454	100.96
405.667	156.95
405.88	65.31
406.094	110.65
406.307	152.11
406.52	122.66
406.733	84.1
406.947	63.57
407.16	167.8
407.373	148.04
407.586	103.48
407.799	80.23
408.012	124.01
408.226	120.33
408.439	173.23
408.652	91.46
408.865	146.88
409.078	153.27
409.291	156.37
409.504	73.45
409.717	148.81
409.93	159.28
410.143	159.86
410.357	76.35
410.57	85.65
410.783	99.21
410.996	133.12
411.209	139.13
411.421	161.02
411.634	115.68
411.847	100.96
412.06	129.44
412.273	110.06
412.486	144.94
412.699	222.44
412.912	126.15
413.125	157.73
413.338	160.44
413.55	143.2
413.763	135.45
413.976	154.43
414.189	79.65
414.402	139.71
414.615	166.83
414.827	91.85
415.04	175.94
415.253	142.23
415.466	156.76
415.678	201.32
415.891	122.85
416.104	140.87
416.316	120.14
416.529	118.01
416.742	178.46
416.954	168.77
417.167	163.35
417.38	136.41
417.592	169.93
417.805	101.93
418.017	105.03
418.23	150.36
418.442	114.91
418.655	115.3
418.868	155.01
419.08	179.43
419.293	204.23
419.505	174.19
419.718	166.45
419.93	157.92
420.142	135.06
420.355	222.24
420.567	225.15
420.78	163.15
420.992	153.66
421.205	212.17
421.417	110.06
421.629	138.16
421.842	118.98
422.054	123.82
422.266	170.13
422.479	200.93
422.691	120.53
422.903	190.86
423.115	145.52
423.328	133.51
423.54	165.09
423.752	153.66
423.964	135.83
424.177	162.96
424.389	145.91
424.601	277.27
424.813	187.18
425.025	178.65
425.238	221.86
425.45	179.23
425.662	163.93
425.874	453.97
426.086	170.51
426.298	173.61
426.51	188.53
426.722	169.54
426.934	165.28
427.146	228.83
427.358	150.17
427.57	192.02
427.782	149.98
427.994	156.76
428.206	144.75
428.418	106.58
428.63	181.36
428.842	212.94
429.054	186.4
429.266	179.43
429.478	155.98
429.69	142.03
429.902	124.79
430.114	190.86
430.325	192.21
430.537	124.01
430.749	175.74
430.961	93.4
431.173	129.83
431.384	165.67
431.596	116.85
431.808	121.69
432.02	198.41
432.231	202.29
432.443	195.51
432.655	201.13
432.867	163.93
433.078	219.73
433.29	265.26
433.502	225.54
433.713	229.03
433.925	202.68
434.136	238.71
434.348	177.29
434.56	136.03
434.771	287.15
434.983	157.92
435.194	195.7
435.406	194.93
435.617	237.94
435.829	292.19
436.04	244.14
436.252	269.13
436.463	247.63
436.675	250.14
436.886	238.52
437.098	226.89
437.309	295.29
437.521	223.21
437.732	232.32
437.943	230.38
438.155	222.83
438.366	187.95
438.578	260.61
438.789	201.13
439	243.56
439.211	217.4
439.423	228.25
439.634	255.76
439.845	241.81
440.057	256.92
440.268	267.97
440.479	193.76
440.69	239.1
440.902	247.04
441.113	248.79
441.324	220.69
441.535	257.31
441.746	297.03
441.957	213.72
442.168	246.27
442.38	260.02
442.591	293.54
442.802	218.56
443.013	217.59
443.224	279.4
443.435	251.11
443.646	251.69
443.857	257.51
444.068	231.35
444.279	222.63
444.49	332.1
444.701	263.12
444.912	366.78
445.123	294.51
445.334	291.8
445.545	296.84
445.756	263.9
445.967	232.32
446.178	270.29
446.388	281.53
446.599	301.49
446.81	290.44
447.021	240.84
447.232	310.01
447.443	308.27
447.653	259.06
447.864	315.24
448.075	301.49
448.286	282.5
448.496	277.27
448.707	308.07
448.918	280.17
449.129	360.19
449.339	281.34
449.55	306.52
449.761	293.35
449.971	351.86
450.182	262.16
450.393	296.84
450.603	285.79
450.814	313.69
451.024	302.46
451.235	334.62
451.446	378.6
451.656	352.25
451.867	283.66
452.077	349.54
452.288	389.84
452.498	358.25
452.709	302.84
452.919	323.38
453.13	291.02
453.34	323.19
453.55	270.49
453.761	335.97
453.971	299.55
454.182	342.56
454.392	339.66
454.602	368.14
454.813	316.02
455.023	334.04
455.233	302.46
455.444	322.41
455.654	243.94
455.864	304.2
456.075	286.96
456.285	312.53
456.495	315.63
456.705	329
456.916	373.17
457.126	371.43
457.336	324.16
457.546	282.69
457.756	304.39
457.967	377.63
458.177	312.92
458.387	338.3
458.597	283.27
458.807	336.75
459.017	308.66
459.227	333.26
459.437	321.83
459.647	352.05
459.857	372.59
460.068	348.57
460.278	379.57
460.488	343.92
460.698	420.25
460.908	344.89
461.117	311.76
461.327	300.91
461.537	356.7
461.747	330.94
461.957	345.47
462.167	417.93
462.377	403.01
462.587	372.01
462.797	377.82
463.007	365.23
463.216	393.52
463.426	419.09
463.636	405.53
463.846	297.22
464.056	368.33
464.265	395.65
464.475	330.36
464.685	349.54
464.895	377.05
465.104	354.19
465.314	364.26
465.524	354.77
465.733	320.47
465.943	441.76
466.153	453.58
466.362	400.49
466.572	397.59
466.782	337.91
466.991	364.65
467.201	425.68
467.41	333.07
467.62	403.59
467.829	372.59
468.039	396.62
468.249	371.24
468.458	381.5
468.668	395.26
468.877	422.19
469.086	428
469.296	458.23
469.505	387.51
469.715	446.99
469.924	398.36
470.134	476.44
470.343	455.32
470.552	417.35
470.762	415.41
470.971	361.35
471.18	415.8
471.39	406.69
471.599	381.5
471.808	449.7
472.018	375.3
472.227	458.23
472.436	474.7
472.645	411.54
472.855	403.2
473.064	479.35
473.273	469.47
473.482	463.27
473.691	486.32
473.901	461.72
474.11	459.39
474.319	533.6
474.528	460.17
474.737	507.83
474.946	483.42
475.155	474.7
475.364	507.83
475.573	476.05
475.783	463.46
475.992	492.33
476.201	569.63
476.41	484.19
476.619	447.57
476.828	497.95
477.037	470.24
477.245	471.4
477.454	539.8
477.663	497.95
477.872	469.85
478.081	563.82
478.29	499.88
478.499	588.23
478.708	546.77
478.917	534.37
479.125	528.17
479.334	553.75
479.543	510.15
479.752	546.19
479.961	523.52
480.169	572.35
480.378	513.06
480.587	652.56
480.796	552.39
481.004	575.64
481.213	558.2
481.422	547.55
481.63	573.51
481.839	595.79
482.048	639.38
482.256	578.35
482.465	606.06
482.674	620.39
482.882	618.46
483.091	660.89
483.299	580.48
483.508	628.14
483.716	607.22
483.925	624.66
484.134	570.99
484.342	579.51
484.551	621.56
484.759	643.06
484.967	617.49
485.176	675.03
485.384	657.79
485.593	668.25
485.801	626.79
486.01	606.64
486.218	584.16
486.426	538.63
486.635	561.88
486.843	549.68
487.051	593.85
487.26	562.27
487.468	633.38
487.676	592.69
487.885	618.84
488.093	634.34
488.301	637.25
488.509	645.97
488.717	694.6
488.926	657.4
489.134	643.64
489.342	653.33
489.55	611.87
489.758	648.29
489.967	662.63
490.175	775.78
490.383	660.5
490.591	740.91
490.799	635.12
491.007	717.46
491.215	713.97
491.423	688.59
491.631	696.15
491.839	696.34
492.047	750.21
492.255	662.24
492.463	641.32
492.671	680.65
492.879	716.88
493.087	685.88
493.295	698.09
493.503	722.69
493.711	724.24
493.919	743.42
494.127	741.49
494.334	766.87
494.542	702.16
494.75	730.44
494.958	746.52
495.166	777.33
495.374	781.98
495.581	750.21
495.789	743.42
495.997	793.99
496.205	747.11
496.412	731.8
496.62	751.37
496.828	788.76
497.035	733.93
497.243	800
497.451	761.44
497.658	773.07
497.866	761.44
498.074	848.63
498.281	719.21
498.489	849.02
498.696	760.47
498.904	712.62
499.112	769
499.319	828.67
499.527	776.36
499.734	808.72
499.942	750.59
500.149	763.19
500.357	799.61
500.564	721.92
500.771	800.97
500.979	725.79
501.186	749.82
501.394	779.85
501.601	733.74
501.808	772.87
502.016	789.92
502.223	752.92
502.43	784.11
502.638	758.73
502.845	753.69
503.052	832.35
503.26	761.64
503.467	826.93
503.674	794.19
503.881	779.27
504.089	853.47
504.296	840.3
504.503	751.56
504.71	773.46
504.917	765.12
505.125	819.57
505.332	803.1
505.539	839.14
505.746	888.93
505.953	854.64
506.16	848.44
506.367	861.61
506.574	880.4
506.781	894.55
506.988	820.73
507.195	850.76
507.402	830.42
507.609	887.57
507.816	786.05
508.023	816.85
508.23	820.92
508.437	777.52
508.644	836.04
508.851	881.57
509.058	882.92
509.265	857.35
509.472	887.77
509.679	971.66
509.885	833.71
510.092	854.83
510.299	877.3
510.506	854.05
510.713	870.72
510.92	873.62
511.126	870.52
511.333	894.35
511.54	868.2
511.746	951.12
511.953	938.72
512.16	942.98
512.367	873.82
512.573	885.44
512.78	905.59
512.987	894.35
513.193	912.76
513.4	833.71
513.606	876.14
513.813	893.97
514.02	878.85
514.226	960.61
514.433	945.5
514.639	845.53
514.846	876.33
515.052	865.1
515.259	883.12
515.465	915.86
515.672	911.6
515.878	964.88
516.085	913.34
516.291	946.67
516.497	862
516.704	883.89
516.91	875.56
517.117	827.51
517.323	817.05
517.529	837.78
517.736	843.4
517.942	825.57
518.148	842.43
518.354	892.61
518.561	860.06
518.767	869.55
518.973	899.39
519.179	899.39
519.386	874.01
519.592	900.75
519.798	871.49
520.004	948.99
520.21	924.58
520.417	973.4
520.623	972.05
520.829	986
521.035	985.61
521.241	1005.95
521.447	982.51
521.653	1070.66
521.859	984.45
522.065	1004.21
522.271	1096.63
522.477	1019.13
522.683	1072.6
522.889	1016.8
523.095	1016.8
523.301	1063.69
523.507	1004.98
523.713	1040.25
523.919	1002.66
524.125	1058.84
524.331	1041.6
524.537	1120.84
524.742	1108.06
524.948	1093.53
525.154	1067.76
525.36	1152.23
525.566	1093.33
525.772	1140.22
525.977	1069.11
526.183	1122.78
526.389	1139.06
526.595	1085
526.8	1045.86
527.006	998.01
527.212	975.53
527.417	973.4
527.623	978.44
527.829	1033.08
528.034	1072.79
528.24	1050.71
528.446	1049.93
528.651	1130.72
528.857	1112.71
529.062	1191.17
529.268	1107.86
529.473	1154.36
529.679	1131.89
529.884	1176.45
530.09	1180.52
530.295	1177.61
530.501	1196.79
530.706	1154.75
530.912	1129.56
531.117	1156.3
531.323	1181.29
531.528	1196.6
531.733	1176.64
531.939	1162.89
532.144	1197.57
532.35	1206.09
532.555	1223.92
532.76	1169.28
532.966	1216.55
533.171	1182.46
533.376	1158.62
533.581	1116.97
533.787	1174.51
533.992	1172.77
534.197	1224.5
534.402	1195.44
534.607	1210.74
534.813	1285.72
535.018	1218.88
535.223	1200.67
535.428	1218.3
535.633	1234.77
535.838	1278.55
536.043	1274.87
536.249	1301.42
536.454	1234.38
536.659	1239.8
536.864	1226.44
537.069	1240.97
537.274	1267.9
537.479	1241.55
537.684	1257.05
537.889	1197.18
538.094	1335.71
538.299	1220.82
538.504	1251.04
538.708	1217.72
538.913	1288.05
539.118	1245.04
539.323	1298.9
539.528	1240.58
539.733	1248.91
539.938	1282.62
540.142	1276.04
540.347	1279.14
540.552	1193.5
540.757	1203.96
540.962	1238.06
541.166	1198.34
541.371	1218.88
541.576	1252.01
541.781	1120.07
541.985	1255.89
542.19	1272.35
542.395	1307.23
542.599	1331.06
542.804	1310.33
543.008	1339.58
543.213	1249.1
543.418	1232.05
543.622	1284.75
543.827	1210.36
544.031	1320.4
544.236	1341.13
544.44	1289.6
544.645	1367.68
544.849	1259.37
545.054	1327.18
545.258	1372.13
545.463	1373.68
545.667	1260.73
545.872	1325.83
546.076	1330.28
546.281	1326.41
546.485	1264.99
546.689	1306.07
546.894	1336.48
547.098	1331.06
547.302	1301.22
547.507	1308
547.711	1342.49
547.915	1373.3
548.119	1280.1
548.324	1306.26
548.528	1351.98
548.732	1331.64
548.936	1320.02
549.141	1359.73
549.345	1311.3
549.549	1336.48
549.753	1331.64
549.957	1399.65
550.161	1406.43
550.366	1378.53
550.57	1278.36
550.774	1324.67
550.978	1331.06
551.182	1357.99
551.386	1294.64
551.59	1280.88
551.794	1318.08
551.998	1349.47
552.202	1290.95
552.406	1290.76
552.61	1345.78
552.814	1311.49
553.018	1387.25
553.222	1372.52
553.426	1321.18
553.63	1421.73
553.833	1340.55
554.037	1303.74
554.241	1314.2
554.445	1318.66
554.649	1325.05
554.853	1322.53
555.056	1357.41
555.26	1379.11
555.464	1346.75
555.668	1344.43
555.871	1327.77
556.075	1344.43
556.279	1314.78
556.483	1287.08
556.686	1311.68
556.89	1361.48
557.094	1310.72
557.297	1256.27
557.501	1335.71
557.704	1230.7
557.908	1335.32
558.112	1297.35
558.315	1375.43
558.519	1288.44
558.722	1290.57
558.926	1270.03
559.129	1210.94
559.333	1204.54
559.536	1216.36
559.74	1223.14
559.943	1219.65
560.147	1210.74
560.35	1247.55
560.553	1212.1
560.757	1202.99
560.96	1291.54
561.164	1202.61
561.367	1307.23
561.57	1224.5
561.774	1288.05
561.977	1256.47
562.18	1217.33
562.384	1341.91
562.587	1235.74
562.79	1220.82
562.993	1218.3
563.197	1266.15
563.4	1336.48
563.603	1286.5
563.806	1297.74
564.009	1200.28
564.212	1290.57
564.416	1196.6
564.619	1238.64
564.822	1197.76
565.025	1315.75
565.228	1236.9
565.431	1203.77
565.634	1159.21
565.837	1189.62
566.04	1147.39
566.243	1156.88
566.446	1100.89
566.649	1187.49
566.852	1137.7
567.055	1142.93
567.258	1185.75
567.461	1259.37
567.664	1221.98
567.867	1103.02
568.07	1188.46
568.273	1178.97
568.475	1187.49
568.678	1124.33
568.881	1107.48
569.084	1153.59
569.287	1050.32
569.489	1082.48
569.692	1152.23
569.895	1162.31
570.098	1080.35
570.3	1081.13
570.503	1038.7
570.706	1071.05
570.909	1079.58
571.111	1044.51
571.314	1039.08
571.516	1071.24
571.719	1098.76
571.922	1025.71
572.124	1020.68
572.327	1066.59
572.529	1029.59
572.732	1048.96
572.935	1102.83
573.137	1128.21
573.34	1036.76
573.542	1082.09
573.745	1058.26
573.947	1049.93
574.15	1061.17
574.352	1016.8
574.554	1111.93
574.757	1021.65
574.959	1019.51
575.162	1018.35
575.364	1007.11
575.566	1124.53
575.769	1011.57
575.971	1049.54
576.173	942.79
576.376	1020.48
576.578	1033.66
576.78	1087.71
576.982	954.03
577.185	1016.8
577.387	964.3
577.589	971.66
577.791	1022.81
577.993	1025.52
578.196	1000.72
578.398	997.43
578.6	1046.64
578.802	954.41
579.004	951.7
579.206	993.94
579.408	988.13
579.61	972.05
579.812	989.1
580.014	955.96
580.216	958.48
580.418	975.15
580.62	971.46
580.822	909.85
581.024	955.19
581.226	1036.95
581.428	968.17
581.63	1039.86
581.832	955.77
582.034	1037.53
582.236	989.1
582.438	1026.88
582.64	1057.88
582.841	1040.25
583.043	1058.84
583.245	1000.33
583.447	1024.94
583.649	1024.16
583.85	986.58
584.052	1029.01
584.254	972.05
584.456	1028.04
584.657	931.55
584.859	977.28
585.061	970.3
585.262	986.77
585.464	944.92
585.666	997.81
585.867	939.11
586.069	1055.36
586.27	992.97
586.472	971.08
586.674	963.71
586.875	942.21
587.077	961.58
587.278	998.2
587.48	939.5
587.681	1096.04
587.883	969.33
588.084	927.87
588.285	944.53
588.487	942.6
588.688	960.03
588.89	919.15
589.091	875.17
589.292	883.7
589.494	869.55
589.695	837.97
589.896	763.19
590.098	796.7
590.299	859.09
590.5	804.45
590.702	873.62
590.903	882.92
591.104	916.25
591.305	879.24
591.507	937.95
591.708	884.28
591.909	864.13
592.11	949.77
592.311	901.52
592.512	870.33
592.714	835.84
592.915	868.39
593.116	870.33
593.317	877.11
593.518	880.02
593.719	875.75
593.92	902.88
594.121	910.63
594.322	911.4
594.523	880.79
594.724	852.7
594.925	878.66
595.126	889.9
595.327	908.11
595.528	874.4
595.729	920.51
595.929	865.68
596.13	887.96
596.331	892.03
596.532	912.76
596.733	920.51
596.934	945.89
597.135	922.25
597.335	876.33
597.536	858.32
597.737	905.78
597.938	849.02
598.138	878.08
598.339	900.36
598.54	898.23
598.74	862.97
598.941	860.25
599.142	936.01
599.342	889.9
599.543	874.01
599.744	895.13
599.944	875.75
600.145	879.63
600.345	877.11
600.546	941.24
600.746	928.26
600.947	931.75
601.147	906.75
601.348	921.09
601.548	834.1
601.749	880.02
601.949	868.39
602.15	872.07
602.35	852.7
602.551	919.93
602.751	876.53
602.951	846.3
603.152	777.33
603.352	900.36
603.552	880.21
603.753	902.3
603.953	883.31
604.153	888.73
604.354	878.66
604.554	844.56
604.754	890.67
604.954	802.13
605.155	875.17
605.355	819.57
605.555	892.8
605.755	924
605.955	857.54
606.155	893.58
606.356	865.29
606.556	870.33
606.756	869.75
606.956	843.2
607.156	912.37
607.356	842.24
607.556	845.92
607.756	875.17
607.956	901.91
608.156	853.86
608.356	824.6
608.556	880.4
608.756	849.4
608.956	823.83
609.156	860.25
609.356	813.95
609.556	815.3
609.755	843.79
609.955	805.62
610.155	843.98
610.355	867.23
610.555	819.18
610.755	853.09
610.954	757.96
611.154	809.3
611.354	909.47
611.554	796.12
611.753	809.88
611.953	773.46
612.153	828.87
612.352	837.39
612.552	784.5
612.752	748.85
612.951	779.46
613.151	810.46
613.351	783.53
613.55	812.2
613.75	813.17
613.949	810.65
614.149	815.11
614.348	797.29
614.548	785.08
614.747	754.27
614.947	790.12
615.146	696.92
615.346	837.39
615.545	786.05
615.745	791.09
615.944	835.26
616.144	782.56
616.343	780.82
616.542	757.76
616.742	752.53
616.941	763.96
617.14	714.36
617.34	744.59
617.539	757.57
617.738	751.95
617.938	822.09
618.137	784.3
618.336	714.56
618.535	770.55
618.734	774.62
618.934	784.3
619.133	775.01
619.332	781.79
619.531	729.47
619.73	779.07
619.929	812.79
620.128	774.62
620.328	826.35
620.527	761.06
620.726	767.84
620.925	779.65
621.124	741.1
621.323	768.61
621.522	700.22
621.721	702.74
621.92	691.5
622.119	792.05
622.318	737.42
622.517	756.79
622.715	731.41
622.914	666.89
623.113	729.67
623.312	707.19
623.511	742.65
623.71	705.06
623.909	741.49
624.107	782.95
624.306	679.29
624.505	682.98
624.704	703.32
624.902	693.44
625.101	756.99
625.3	702.74
625.499	703.12
625.697	702.54
625.896	686.66
626.095	750.59
626.293	675.81
626.492	680.07
626.69	731.02
626.889	669.03
627.088	754.66
627.286	678.52
627.485	683.56
627.683	688.4
627.882	675.61
628.08	621.75
628.279	648.49
628.477	735.87
628.676	652.36
628.874	721.92
629.073	667.09
629.271	642.29
629.469	685.49
629.668	668.25
629.866	664.96
630.065	676
630.263	686.85
630.461	657.79
630.66	662.63
630.858	690.53
631.056	697.7
631.254	730.25
631.453	651.2
631.651	686.85
631.849	682.2
632.047	673.87
632.245	655.46
632.444	681.81
632.642	705.64
632.84	710.1
633.038	632.79
633.236	651.2
633.434	625.63
633.632	640.16
633.83	677.74
634.028	706.03
634.227	675.61
634.425	736.84
634.623	630.86
634.821	657.01
635.019	686.08
635.216	667.86
635.414	700.99
635.612	674.45
635.81	660.89
636.008	743.23
636.206	665.73
636.404	693.05
636.602	620.01
636.8	692.08
636.997	702.16
637.195	710.68
637.393	684.91
637.591	731.41
637.789	669.99
637.986	653.72
638.184	676.78
638.382	724.05
638.58	684.53
638.777	734.9
638.975	645.97
639.173	679.68
639.37	695.96
639.568	710.49
639.765	690.73
639.963	656.04
640.161	700.61
640.358	683.17
640.556	644.61
640.753	642.09
640.951	623.88
641.148	639.77
641.346	665.54
641.543	675.03
641.741	649.65
641.938	664.38
642.136	677.74
642.333	643.06
642.531	700.61
642.728	718.62
642.925	660.5
643.123	640.54
643.32	653.53
643.517	636.86
643.715	646.16
643.912	591.14
644.109	648.88
644.306	630.08
644.504	632.6
644.701	630.28
644.898	700.41
645.095	613.81
645.293	641.32
645.49	684.91
645.687	653.91
645.884	671.16
646.081	624.46
646.278	598.31
646.475	611.09
646.672	617.68
646.87	636.86
647.067	646.16
647.264	603.73
647.461	586.68
647.658	567.31
647.855	670.77
648.052	608.19
648.249	538.63
648.446	587.85
648.642	561.3
648.839	576.22
649.036	550.65
649.233	565.18
649.43	576.41
649.627	549.29
649.824	585.91
650.021	557.81
650.217	539.02
650.414	567.7
650.611	623.3
650.808	603.73
651.004	573.7
651.201	603.54
651.398	631.05
651.595	609.16
651.791	595.79
651.988	619.04
652.185	551.81
652.381	600.44
652.578	520.03
652.775	575.45
652.971	575.45
653.168	570.8
653.364	568.08
653.561	497.56
653.757	577.96
653.954	584.16
654.15	541.54
654.347	618.46
654.543	576.03
654.74	510.73
654.936	540.96
655.133	570.02
655.329	569.44
655.525	540.57
655.722	587.26
655.918	532.24
656.115	540.96
656.311	510.35
656.507	485.16
656.704	471.21
656.9	501.63
657.096	479.73
657.292	490.39
657.489	529.72
657.685	528.17
657.881	511.9
658.077	489.62
658.273	519.84
658.47	603.15
658.666	546.58
658.862	561.11
659.058	495.04
659.254	576.22
659.45	512.09
659.646	537.66
659.842	517.71
660.038	582.23
660.234	506.08
660.43	544.45
660.626	612.45
660.822	593.08
661.018	578.16
661.214	565.95
661.41	483.22
661.606	600.05
661.802	580.29
661.998	543.28
662.194	519.06
662.39	559.75
662.586	569.44
662.781	581.84
662.977	573.9
663.173	582.61
663.369	543.28
663.564	555.49
663.76	597.34
663.956	561.88
664.152	602.18
664.347	513.83
664.543	541.15
664.739	523.52
664.934	477.41
665.13	477.99
665.326	547.16
665.521	535.53
665.717	528.36
665.912	500.85
666.108	433.23
666.304	508.41
666.499	523.52
666.695	457.26
666.89	511.32
667.086	531.27
667.281	522.94
667.477	564.21
667.672	518.68
667.867	524.1
668.063	515
668.258	494.46
668.454	507.83
668.649	598.11
668.844	535.73
669.04	539.8
669.235	505.7
669.43	479.73
669.626	456.87
669.821	517.71
670.016	486.71
670.211	523.71
670.407	487.87
670.602	526.43
670.797	505.12
670.992	550.26
671.187	472.18
671.382	544.45
671.578	487.68
671.773	535.73
671.968	465.2
672.163	490.97
672.358	502.21
672.553	495.43
672.748	486.71
672.943	537.28
673.138	478.38
673.333	520.61
673.528	482.64
673.723	547.74
673.918	484.77
674.113	458.81
674.308	540.57
674.503	520.61
674.698	533.6
674.892	521
675.087	540.96
675.282	517.32
675.477	489.03
675.672	526.04
675.867	491.55
676.061	465.01
676.256	437.3
676.451	473.34
676.646	508.22
676.84	470.43
677.035	455.71
677.23	452.03
677.424	521.97
677.619	501.24
677.814	506.47
678.008	559.56
678.203	446.6
678.397	458.62
678.592	479.54
678.787	518.68
678.981	476.25
679.176	507.44
679.37	500.08
679.565	449.9
679.759	486.9
679.954	507.83
680.148	535.34
680.342	544.06
680.537	490.97
680.731	467.33
680.926	515.19
681.12	506.67
681.314	460.55
681.509	469.66
681.703	498.72
681.897	502.02
682.092	502.4
682.286	467.72
682.48	552.58
682.674	507.83
682.869	466.37
683.063	476.25
683.257	551.61
683.451	424.71
683.645	495.23
683.839	482.06
684.034	495.23
684.228	520.42
684.422	443.89
684.616	427.62
684.81	502.79
685.004	475.67
685.198	476.83
685.392	486.52
685.586	434.59
685.78	495.04
685.974	495.82
686.168	480.51
686.362	536.89
686.556	448.35
686.75	414.83
686.944	429.36
687.138	443.89
687.331	358.45
687.525	394.87
687.719	315.63
687.913	368.14
688.107	399.33
688.301	366.97
688.494	398.75
688.688	350.12
688.882	361.74
689.076	338.88
689.269	360.77
689.463	440.21
689.657	402.24
689.85	394.87
690.044	375.89
690.238	388.67
690.431	372.2
690.625	386.35
690.818	407.47
691.012	419.09
691.205	393.9
691.399	378.4
691.593	421.8
691.786	473.92
691.98	464.62
692.173	456.87
692.366	441.18
692.56	481.48
692.753	497.56
692.947	442.92
693.14	480.7
693.333	521.39
693.527	433.43
693.72	473.34
693.914	460.17
694.107	465.78
694.3	495.62
694.493	448.35
694.687	477.6
694.88	469.66
695.073	510.93
695.266	507.63
695.46	456.68
695.653	537.86
695.846	507.63
696.039	441.18
696.232	501.63
696.425	521.39
696.618	541.93
696.812	488.84
697.005	561.11
697.198	637.64
697.391	571.18
697.584	584.55
697.777	626.79
697.97	588.23
698.163	582.81
698.356	576.41
698.549	671.35
698.742	638.8
698.935	596.56
699.127	632.02
699.32	573.7
699.513	591.53
699.706	630.28
699.899	630.28
700.092	595.98
700.285	636.28
700.477	552
700.67	655.08
700.863	651.01
701.056	726.96
701.248	669.03
701.441	677.74
701.634	640.35
701.826	777.14
702.019	631.63
702.212	715.72
702.404	642.29
702.597	642.87
702.79	671.35
702.982	704.67
703.175	744.01
703.367	744.59
703.56	764.93
703.752	799.03
703.945	751.95
704.137	785.08
704.33	751.56
704.522	821.31
704.715	804.45
704.907	826.35
705.1	834.29
705.292	846.5
705.484	795.54
705.677	854.83
705.869	853.09
706.061	899.78
706.254	911.02
706.446	880.6
706.638	862.97
706.831	951.7
707.023	874.4
707.215	970.3
707.407	942.79
707.599	954.41
707.792	1001.88
707.984	936.2
708.176	971.46
708.368	943.95
708.56	976.31
708.752	997.04
708.944	964.88
709.136	1033.08
709.329	1001.5
709.521	1095.66
709.713	1060.39
709.905	1059.04
710.097	1079.19
710.289	1067.56
710.481	1047.8
710.672	1079.19
710.864	1101.66
711.056	1172.57
711.248	1108.25
711.44	1121.04
711.632	1140.41
711.824	1153.39
712.016	1239.42
712.207	1181.49
712.399	1180.71
712.591	1273.52
712.783	1201.06
712.975	1228.76
713.166	1190.4
713.358	1207.64
713.55	1310.72
713.741	1270.8
713.933	1264.22
714.125	1281.65
714.316	1240.58
714.508	1328.15
714.7	1334.55
714.891	1306.26
715.083	1357.8
715.274	1353.92
715.466	1330.28
715.657	1360.12
715.849	1300.06
716.04	1323.12
716.232	1285.14
716.423	1325.63
716.615	1310.33
716.806	1260.54
716.998	1268.09
717.189	1215.2
717.381	1153.78
717.572	1152.04
717.763	1171.61
717.955	1156.11
718.146	1129.56
718.337	1121.04
718.528	1087.33
718.72	1036.95
718.911	1104.96
719.102	1064.66
719.293	1081.32
719.485	1078.41
719.676	1107.86
719.867	1066.79
720.058	1071.05
720.249	1099.14
720.44	1106.89
720.632	1161.72
720.823	1174.51
721.014	1261.89
721.205	1266.93
721.396	1317.3
721.587	1387.83
721.778	1408.36
721.969	1445.18
722.16	1450.8
722.351	1439.56
722.542	1585.45
722.733	1582.35
722.924	1497.68
723.115	1552.51
723.305	1561.04
723.496	1553.29
723.687	1468.04
723.878	1507.56
724.069	1488.58
724.26	1520.16
724.45	1435.1
724.641	1446.73
724.832	1491.48
725.023	1471.14
725.213	1453.12
725.404	1448.28
725.595	1496.71
725.785	1459.32
725.976	1500.39
726.167	1509.69
726.357	1481.99
726.548	1605.21
726.739	1512.41
726.929	1590.49
727.12	1624.39
727.31	1651.13
727.501	1612.77
727.691	1583.12
727.882	1583.32
728.072	1635.24
728.263	1644.93
728.453	1693.17
728.644	1698.4
728.834	1686.78
729.024	1669.34
729.215	1674.38
729.405	1704.41
729.596	1712.16
729.786	1760.79
729.976	1761.18
730.167	1779.58
730.357	1761.76
730.547	1745.1
730.737	1797.8
730.928	1850.3
731.118	1890.21
731.308	1818.72
731.498	1846.43
731.688	1939.23
731.879	1915.59
732.069	1971.59
732.259	1986.7
732.449	2002.78
732.639	2072.92
732.829	2106.44
733.019	2136.66
733.209	2172.5
733.399	2183.16
733.589	2238.38
733.779	2245.74
733.969	2217.26
734.159	2264.73
734.349	2347.07
734.539	2376.33
734.729	2358.89
734.919	2424.96
735.109	2423.99
735.299	2397.64
735.488	2380.01
735.678	2423.79
735.868	2434.84
736.058	2391.63
736.248	2425.73
736.437	2375.16
736.627	2425.73
736.817	2498
737.007	2444.72
737.196	2523.19
737.386	2471.46
737.576	2416.04
737.765	2510.4
737.955	2533.07
738.144	2601.65
738.334	2533.84
738.524	2524.74
738.713	2561.94
738.903	2555.15
739.092	2587.32
739.282	2609.4
739.471	2629.94
739.661	2637.3
739.85	2638.66
740.04	2636.92
740.229	2667.14
740.419	2705.11
740.608	2682.25
740.797	2657.07
740.987	2752.58
741.176	2712.28
741.365	2686.71
741.555	2717.71
741.744	2771.38
741.933	2717.9
742.123	2770.21
742.312	2783
742.501	2792.88
742.69	2854.88
742.88	2742.51
743.069	2874.84
743.258	2794.43
743.447	2863.79
743.636	2860.5
743.825	2791.91
744.014	2869.61
744.204	2865.54
744.393	2838.41
744.582	2875.81
744.771	2931.41
744.96	2883.36
745.149	2885.49
745.338	2864.96
745.527	2895.96
745.716	2919.01
745.905	2859.92
746.094	2942.46
746.283	2937.81
746.471	2927.54
746.66	2973.07
746.849	2945.17
747.038	2963.77
747.227	2899.44
747.416	2975.2
747.604	2868.64
747.793	2899.64
747.982	2956.79
748.171	2955.44
748.359	2955.44
748.548	2919.01
748.737	2955.05
748.926	2939.55
749.114	2850.04
749.303	2952.34
749.491	2917.66
749.68	2873.48
749.869	2940.91
750.057	2930.64
750.246	2920.56
750.434	2920.76
750.623	2909.52
750.811	2892.66
751	2987.99
751.188	2919.59
751.377	2905.45
751.565	2879.29
751.754	2914.56
751.942	2864.18
752.131	2934.32
752.319	2885.3
752.507	2826.01
752.696	2897.89
752.884	2973.65
753.072	2905.06
753.261	2913.59
753.449	2918.62
753.637	2889.76
753.825	3021.89
754.014	2889.76
754.202	2890.92
754.39	2971.9
754.578	2953.11
754.766	2904.09
754.955	2891.5
755.143	2964.15
755.331	2874.84
755.519	2881.42
755.707	2875.42
755.895	2853.14
756.083	2908.36
756.271	2858.18
756.459	2840.54
756.647	2918.82
756.835	2828.34
757.023	2858.56
757.211	2834.15
757.399	2838.61
757.587	2801.6
757.775	2752.97
757.963	2854.11
758.151	2823.49
758.339	2752.39
758.526	2796.95
758.714	2784.36
758.902	2757.81
759.09	2654.55
759.278	2469.32
759.465	2276.74
759.653	1975.85
759.841	1812.33
760.028	1536.43
760.216	1326.6
760.404	1292.89
760.591	1091.39
760.779	864.9
760.967	762.22
761.154	638.8
761.342	695.76
761.529	669.8
761.717	713.01
761.905	706.22
762.092	743.62
762.28	698.47
762.467	703.51
762.655	629.5
762.842	675.81
763.029	687.04
763.217	674.45
763.404	689.37
763.592	724.05
763.779	713.2
763.966	727.15
764.154	746.14
764.341	810.46
764.528	794.19
764.716	862
764.903	891.83
765.09	968.95
765.277	1015.25
765.465	1137.89
765.652	1204.16
765.839	1235.93
766.026	1333.77
766.213	1396.35
766.4	1490.9
766.588	1652.29
766.775	1635.82
766.962	1774.93
767.149	1798.96
767.336	1930.13
767.523	1912.69
767.71	1968.29
767.897	2096.75
768.084	2213.97
768.271	2209.51
768.458	2241.67
768.645	2305.61
768.832	2228.88
769.019	2283.91
769.206	2328.47
769.392	2379.04
769.579	2485.79
769.766	2440.07
769.953	2422.83
770.14	2483.27
770.327	2461.77
770.513	2536.55
770.7	2550.12
770.887	2472.23
771.073	2539.65
771.26	2526.67
771.447	2484.44
771.634	2504.59
771.82	2606.3
772.007	2470.29
772.193	2529
772.38	2617.73
772.567	2519.51
772.753	2556.51
772.94	2574.14
773.126	2577.63
773.313	2547.79
773.499	2565.04
773.686	2553.22
773.872	2505.17
774.059	2544.69
774.245	2491.8
774.432	2524.16
774.618	2469.32
774.804	2549.15
774.991	2474.94
775.177	2544.3
775.363	2487.92
775.55	2538.3
775.736	2490.64
775.922	2486.37
776.109	2474.36
776.295	2528.8
776.481	2510.4
776.667	2498.97
776.853	2474.17
777.04	2422.44
777.226	2469.52
777.412	2505.75
777.598	2428.64
777.784	2438.13
777.97	2436.58
778.156	2490.25
778.342	2435.23
778.528	2420.69
778.715	2387.95
778.901	2400.54
779.087	2442.39
779.272	2396.48
779.458	2407.52
779.644	2439.87
779.83	2378.26
780.016	2519.12
780.202	2420.69
780.388	2429.8
780.574	2323.82
780.76	2352.3
780.946	2374.58
781.131	2370.32
781.317	2374.19
781.503	2345.33
781.689	2347.07
781.874	2451.69
782.06	2297.66
782.246	2330.8
782.432	2326.73
782.617	2320.72
782.803	2414.88
782.989	2304.25
783.174	2316.46
783.36	2269.96
783.545	2308.71
783.731	2312
783.916	2223.07
784.102	2333.51
784.288	2280.61
784.473	2258.33
784.659	2271.9
784.844	2292.63
785.029	2240.7
785.215	2253.3
785.4	2203.12
785.586	2247.68
785.771	2216.87
785.956	2233.15
786.142	2225.78
786.327	2211.45
786.512	2234.89
786.698	2198.08
786.883	2113.8
787.068	2170.37
787.254	2169.21
787.439	2172.7
787.624	2176.77
787.809	2157.39
787.994	2156.42
788.18	2204.08
788.365	2069.62
788.55	2107.21
788.735	2145.96
788.92	2119.22
789.105	2102.37
789.29	2171.15
789.475	2059.94
789.66	2097.52
789.845	2048.7
790.03	2045.02
790.215	2115.93
790.4	2109.54
790.585	2125.62
790.77	2060.13
790.955	1979.34
791.14	2073.69
791.325	2107.02
791.51	1958.03
791.695	2027.19
791.879	2069.82
792.064	2001.43
792.249	2071.76
792.434	2053.54
792.618	2054.51
792.803	2059.55
792.988	2009.17
793.173	1989.61
793.357	2118.84
793.542	1984.76
793.727	2055.09
793.911	2040.56
794.096	2052.38
794.281	2064.39
794.465	2113.02
794.65	2036.69
794.834	2066.14
795.019	2121.55
795.203	2074.27
795.388	2100.24
795.572	2138.21
795.757	2090.94
795.941	2086.67
796.126	2044.05
796.31	1989.8
796.494	2051.02
796.679	2027.77
796.863	2003.17
797.048	2107.4
797.232	2065.94
797.416	2061.49
797.601	2066.91
797.785	2126.2
797.969	2126.59
798.153	2064.78
798.338	2100.62
798.522	2123.49
798.706	2108.57
798.89	2138.4
799.074	2186.65
799.258	2129.3
799.443	2084.35
799.627	2088.22
799.811	2114.96
799.995	2080.86
800.179	2047.15
800.363	2091.71
800.547	2058.77
800.731	2098.3
800.915	2033.78
801.099	2082.99
801.283	2072.53
801.467	2058.19
801.651	2023.71
801.835	2084.93
802.019	2049.47
802.202	2090.35
802.386	2020.8
802.57	2029.32
802.754	2017.31
802.938	2024.48
803.121	2027.77
803.305	2079.51
803.489	2029.91
803.673	2050.25
803.856	2099.07
804.04	2040.56
804.224	2041.72
804.407	2054.12
804.591	2033.59
804.775	2064.2
804.958	2046.57
805.142	2126.78
805.326	2051.61
805.509	2070.4
805.693	2112.64
805.876	2125.04
806.06	2049.67
806.243	2140.92
806.427	2118.64
806.61	2117.67
806.794	2066.72
806.977	2117.87
807.16	2073.11
807.344	2057.03
807.527	2063.04
807.71	2087.06
807.894	2108.18
808.077	2114.77
808.26	2026.22
808.444	2064.2
808.627	2090.16
808.81	2048.31
808.993	1986.51
809.177	1976.04
809.36	2019.44
809.543	2027.19
809.726	1924.89
809.909	1977.21
810.092	1945.43
810.276	1935.16
810.459	1950.47
810.642	1955.12
810.825	1890.41
811.008	1923.93
811.191	1811.17
811.374	1864.64
811.557	1864.06
811.74	1894.48
811.923	1832.86
812.106	1810.58
812.289	1785.98
812.472	1793.92
812.654	1810.97
812.837	1758.08
813.02	1698.99
813.203	1716.42
813.386	1625.36
813.569	1605.02
813.751	1584.87
813.934	1596.49
814.117	1606.18
814.3	1548.64
814.482	1487.22
814.665	1485.28
814.848	1467.26
815.03	1443.24
815.213	1393.64
815.396	1381.63
815.578	1374.27
815.761	1350.43
815.943	1403.13
816.126	1317.5
816.309	1301.61
816.491	1242.13
816.674	1246.2
816.856	1243.49
817.039	1256.27
817.221	1322.53
817.403	1260.34
817.586	1248.33
817.768	1319.63
817.951	1240.97
818.133	1212.87
818.315	1245.62
818.498	1312.85
818.68	1343.46
818.862	1282.62
819.045	1314.59
819.227	1302.97
819.409	1299.29
819.591	1336.48
819.774	1308.39
819.956	1266.93
820.138	1309.17
820.32	1345.4
820.502	1394.8
820.684	1435.68
820.866	1437.23
821.048	1490.13
821.231	1463.97
821.413	1455.64
821.595	1432.39
821.777	1435.49
821.959	1459.71
822.141	1499.04
822.323	1372.13
822.505	1354.89
822.686	1333
822.868	1281.27
823.05	1151.46
823.232	1155.33
823.414	1095.46
823.596	1138.28
823.778	1105.93
823.96	1144.87
824.141	1135.96
824.323	1160.37
824.505	1257.82
824.687	1286.3
824.868	1338.42
825.05	1416.31
825.232	1382.98
825.413	1484.31
825.595	1433.36
825.777	1352.95
825.958	1438.2
826.14	1402.75
826.321	1428.9
826.503	1394.41
826.685	1426.19
826.866	1448.28
827.048	1455.45
827.229	1407.2
827.411	1373.1
827.592	1336.48
827.773	1309.94
827.955	1271.19
828.136	1302.77
828.318	1286.69
828.499	1313.82
828.68	1260.15
828.862	1289.4
829.043	1314.4
829.224	1310.72
829.406	1251.43
829.587	1275.65
829.768	1265.38
829.949	1303.16
830.131	1260.15
830.312	1351.21
830.493	1283.4
830.674	1283.2
830.855	1289.21
831.036	1295.6
831.218	1359.73
831.399	1353.15
831.58	1293.09
831.761	1300.84
831.942	1299.67
832.123	1308.2
832.304	1250.07
832.485	1245.81
832.666	1255.5
832.847	1270.22
833.028	1290.57
833.209	1271.19
833.389	1272.16
833.57	1246.2
833.751	1229.92
833.932	1289.79
834.113	1274.87
834.294	1277.39
834.475	1317.88
834.655	1348.69
834.836	1365.16
835.017	1319.63
835.198	1268.48
835.378	1318.66
835.559	1336.68
835.74	1272.55
835.92	1294.64
836.101	1273.32
836.281	1337.65
836.462	1330.28
836.643	1361.67
836.823	1371.75
837.004	1361.48
837.184	1404.49
837.365	1350.43
837.545	1370
837.726	1340.17
837.906	1380.08
838.087	1346.56
838.267	1340.17
838.448	1284.37
838.628	1346.75
838.808	1332.8
838.989	1382.4
839.169	1296.19
839.349	1357.8
839.53	1357.02
839.71	1375.43
839.89	1312.07
840.07	1413.79
840.251	1306.65
840.431	1380.66
840.611	1365.16
840.791	1332.61
840.971	1363.03
841.151	1321.18
841.332	1292.31
841.512	1385.7
841.692	1266.35
841.872	1356.83
842.052	1323.89
842.232	1368.65
842.412	1274.49
842.592	1308.39
842.772	1339.2
842.952	1324.47
843.132	1277.39
843.312	1269.64
843.492	1256.47
843.672	1353.73
843.851	1260.92
844.031	1318.85
844.211	1290.18
844.391	1263.64
844.571	1306.45
844.751	1321.76
844.93	1299.09
845.11	1287.08
845.29	1293.86
845.47	1309.17
845.649	1270.8
845.829	1327.77
846.009	1260.34
846.188	1292.7
846.368	1286.3
846.547	1286.89
846.727	1303.55
846.907	1258.6
847.086	1299.67
847.266	1328.15
847.445	1304.9
847.625	1276.04
847.804	1260.34
847.984	1283.4
848.163	1244.26
848.343	1243.49
848.522	1265.57
848.701	1290.95
848.881	1256.85
849.06	1218.69
849.239	1254.72
849.419	1246.97
849.598	1220.62
849.777	1205.71
849.957	1207.84
850.136	1151.46
850.315	1131.5
850.494	1165.79
850.674	1145.84
850.853	1225.85
851.032	1173.74
851.211	1209.19
851.39	1194.08
851.569	1125.69
851.748	1162.11
851.927	1211.52
852.107	1174.12
852.286	1139.83
852.465	1126.46
852.644	1202.22
852.823	1207.26
853.002	1168.7
853.181	1165.79
853.359	1174.32
853.538	1107.09
853.717	1209.19
853.896	1097.79
854.075	1046.83
854.254	1017
854.433	977.86
854.611	1027.07
854.79	1000.72
854.969	1017.38
855.148	1059.23
855.327	1012.54
855.505	1086.16
855.684	1025.13
855.863	1086.94
856.041	1022.61
856.22	1055.74
856.399	1025.91
856.577	1141.38
856.756	1131.5
856.934	1215.2
857.113	1220.62
857.291	1155.52
857.47	1081.13
857.648	1102.05
857.827	1122.78
858.005	1137.12
858.184	1095.08
858.362	1184.01
858.541	1124.53
858.719	1085
858.898	1100.5
859.076	1079.96
859.254	1159.21
859.433	1094.49
859.611	1053.61
859.789	1045.09
859.967	1117.55
860.146	1167.92
860.324	1066.98
860.502	1064.27
860.68	1054.58
860.859	1042.57
861.037	1087.52
861.215	1094.69
861.393	1088.88
861.571	1067.18
861.749	1053.03
861.927	1116.19
862.105	1080.35
862.283	1068.73
862.461	1056.13
862.639	1046.25
862.817	1047.22
862.995	1071.05
863.173	1044.51
863.351	1040.25
863.529	1033.08
863.707	1073.96
863.885	1064.27
864.063	984.25
864.241	1040.25
864.418	1078.61
864.596	1012.73
864.774	1001.3
864.952	1024.55
865.129	1072.02
865.307	1001.11
865.485	980.18
865.663	1047.22
865.84	925.55
866.018	1025.71
866.196	893.77
866.373	906.75
866.551	853.67
866.728	862
866.906	859.67
867.084	930.58
867.261	971.85
867.439	948.6
867.616	954.41
867.794	945.89
867.971	957.51
868.149	945.12
868.326	1004.4
868.503	967.01
868.681	969.33
868.858	942.6
869.035	930.78
869.213	965.85
869.39	965.07
869.567	1038.89
869.745	935.82
869.922	967.01
870.099	966.81
870.276	990.26
870.454	965.65
870.631	958.68
870.808	965.46
870.985	972.82
871.162	982.12
871.339	1002.66
871.517	927.1
871.694	909.85
871.871	931.55
872.048	929.62
872.225	913.73
872.402	948.8
872.579	906.56
872.756	959.26
872.933	876.33
873.11	936.59
873.287	895.9
873.463	933.1
873.64	912.76
873.817	928.84
873.994	910.63
874.171	884.47
874.348	944.53
874.524	833.13
874.701	904.43
874.878	834.49
875.055	910.43
875.231	875.37
875.408	900.55
875.585	851.54
875.762	882.53
875.938	893.77
876.115	857.54
876.291	853.47
876.468	852.7
876.645	804.26
876.821	870.33
876.998	847.66
877.174	860.84
877.351	865.1
877.527	841.46
877.704	879.24
877.88	842.43
878.057	849.4
878.233	932.52
878.409	849.79
878.586	859.29
878.762	859.48
878.938	863.16
879.115	764.16
879.291	816.66
879.467	774.62
879.644	810.85
879.82	844.17
879.996	822.09
880.172	775.78
880.349	820.34
880.525	840.3
880.701	761.64
880.877	773.84
881.053	812.2
881.229	813.17
881.405	844.75
881.581	800.77
881.757	803.87
881.933	818.99
882.109	814.72
882.285	800.58
882.461	756.21
882.637	815.11
882.813	765.9
882.989	773.65
883.165	874.01
883.341	770.16
883.517	846.89
883.693	809.1
883.869	821.31
884.044	768.22
884.22	802.32
884.396	865.29
884.572	818.6
884.747	833.52
884.923	823.25
885.099	837.78
885.275	846.3
885.45	767.84
885.626	775.01
885.801	753.5
885.977	802.52
886.153	747.69
886.328	829.64
886.504	774.23
886.679	806.97
886.855	773.07
887.03	826.15
887.206	820.73
887.381	783.14
887.557	795.74
887.732	811.82
887.908	812.2
888.083	837.2
888.258	780.62
888.434	782.37
888.609	799.61
888.784	843.79
888.96	785.27
889.135	754.86
889.31	775.78
889.485	778.49
889.661	753.89
889.836	834.49
890.011	811.62
890.186	767.06
890.361	757.96
890.537	757.18
890.712	817.24
890.887	782.75
891.062	794.57
891.237	831.97
891.412	762.8
891.587	803.29
891.762	809.49
891.937	811.43
892.112	743.04
892.287	799.42
892.462	756.79
892.637	719.98
892.812	706.61
892.987	737.22
893.161	701.19
893.336	704.29
893.511	741.87
893.686	731.8
893.861	719.4
894.035	691.69
894.21	725.6
894.385	692.27
894.56	717.85
894.734	650.62
894.909	649.65
895.084	646.74
895.258	652.75
895.433	675.23
895.608	649.07
895.782	614.78
895.957	616.71
896.131	622.33
896.306	574.67
896.48	555.49
896.655	559.36
896.829	524.49
897.004	521
897.178	521.58
897.353	542.9
897.527	591.72
897.701	554.52
897.876	502.79
898.05	576.61
898.224	558.78
898.399	595.01
898.573	536.11
898.747	452.22
898.921	499.69
899.096	419.87
899.27	437.5
899.444	442.53
899.618	475.86
899.792	464.62
899.967	429.36
900.141	512.48
900.315	418.9
900.489	451.64
900.663	464.43
900.837	487.48
901.011	434.59
901.185	524.88
901.359	458.23
901.533	499.5
901.707	488.45
901.881	499.11
902.055	434.01
902.229	461.13
902.403	535.73
902.576	456.48
902.75	487.87
902.924	556.46
903.098	501.82
903.272	568.28
903.446	557.43
903.619	536.7
903.793	585.52
903.967	534.95
904.14	575.06
904.314	591.53
904.488	568.47
904.661	611.09
904.835	587.46
905.009	605.67
905.182	658.18
905.356	620.98
905.529	589.4
905.703	563.63
905.876	550.65
906.05	534.56
906.223	525.65
906.397	492.13
906.57	478.96
906.744	459.78
906.917	454.55
907.09	470.24
907.264	452.03
907.437	446.41
907.61	407.85
907.784	440.6
907.957	433.23
908.13	402.82
908.304	477.6
908.477	400.3
908.65	426.84
908.823	409.6
908.996	457.07
909.17	424.9
909.343	420.45
909.516	416.96
909.689	384.99
909.862	370.27
910.035	430.52
910.208	412.31
910.381	391.97
910.554	452.61
910.727	412.31
910.9	398.94
911.073	389.06
911.246	454.93
911.419	478.18
911.592	406.3
911.765	405.34
911.938	368.52
912.11	410.57
912.283	432.85
912.456	436.33
912.629	420.64
912.802	370.27
912.974	359.22
913.147	347.21
913.32	283.47
913.493	313.89
913.665	374.92
913.838	349.54
914.01	337.72
914.183	375.89
914.356	363.49
914.528	382.86
914.701	435.95
914.873	425.49
915.046	324.74
915.218	327.26
915.391	271.46
915.563	302.26
915.736	349.15
915.908	384.8
916.081	361.94
916.253	346.05
916.425	350.7
916.598	344.69
916.77	385.96
916.942	320.67
917.115	273.2
917.287	360.39
917.459	345.85
917.632	294.32
917.804	260.22
917.976	312.92
918.148	329
918.32	308.27
918.493	378.6
918.665	391
918.837	376.27
919.009	393.9
919.181	393.9
919.353	354.96
919.525	348.18
919.697	374.14
919.869	362.71
920.041	427.42
920.213	480.51
920.385	409.4
920.557	399.14
920.729	396.23
920.901	409.4
921.073	403.79
921.244	385.57
921.416	417.93
921.588	381.5
921.76	369.3
921.932	432.27
922.103	378.6
922.275	394.29
922.447	403.79
922.619	314.86
922.79	373.37
922.962	368.72
923.134	377.05
923.305	296.84
923.477	350.31
923.648	325.9
923.82	318.34
923.991	304.01
924.163	284.24
924.335	311.17
924.506	291.99
924.677	373.17
924.849	306.14
925.02	316.79
925.192	325.51
925.363	323.77
925.535	339.85
925.706	282.89
925.877	371.04
926.049	299.74
926.22	309.04
926.391	352.44
926.562	330.94
926.734	306.33
926.905	367.55
927.076	261.77
927.247	307.11
927.419	253.83
927.59	258.67
927.761	252.08
927.932	262.54
928.103	254.02
928.274	240.26
928.445	217.21
928.616	225.54
928.787	232.9
928.958	286.76
929.129	240.46
929.3	224.57
929.471	213.53
929.642	144.94
929.813	100.18
929.984	216.04
930.155	136.8
930.326	188.92
930.496	134.48
930.667	107.35
930.838	138.93
931.009	110.06
931.18	114.91
931.35	133.7
931.521	139.51
931.692	76.55
931.863	51.55
932.033	113.75
932.204	129.44
932.374	140.87
932.545	51.17
932.716	136.22
932.886	129.63
933.057	36.63
933.227	53.1
933.398	131.18
933.568	62.02
933.739	14.93
933.909	38.38
934.08	82.94
934.25	-15.29
934.421	27.53
934.591	60.85
934.761	32.18
934.932	13
935.102	44.38
935.272	14.35
935.443	39.93
935.613	29.85
935.783	62.98
935.953	53.3
936.123	167.22
936.294	-9.48
936.464	21.13
936.634	39.93
936.804	-6.38
936.974	-24.59
937.144	73.25
937.314	51.75
937.484	32.37
937.655	25.78
937.825	85.65
937.995	-13.16
938.165	84.88
938.334	33.73
938.504	49.42
938.674	28.5
938.844	42.83
939.014	116.65
939.184	72.28
939.354	117.23
939.524	128.08
939.694	72.67
939.863	48.26
940.033	137.58
940.203	95.73
940.373	79.65
940.542	93.01
940.712	65.12
940.882	106.19
941.051	108.51
941.221	115.1
941.391	126.15
941.56	41.28
941.73	54.85
941.899	155.21
942.069	69.38
942.238	102.12
942.408	54.85
942.577	96.7
942.747	71.51
942.916	24.04
943.086	42.25
943.255	81.58
943.425	91.46
943.594	79.84
943.763	2.53
943.933	38.57
944.102	-2.31
944.271	41.09
944.441	80.61
944.61	30.05
944.779	60.85
944.948	136.03
945.117	11.45
945.287	55.23
945.456	6.02
945.625	45.74
945.794	90.11
945.963	13.19
946.132	60.08
946.301	53.3
946.47	66.28
946.639	23.85
946.808	43.22
946.977	77.52
947.146	102.31
947.315	46.13
947.484	98.05
947.653	40.51
947.822	22.49
947.991	23.07
948.16	128.47
948.329	88.17
948.498	55.43
948.666	37.99
948.835	85.65
949.004	23.46
949.173	33.15
949.341	65.7
949.51	77.9
949.679	94.76
949.847	62.4
950.016	140.68
950.185	93.01
950.353	37.8
950.522	58.92
950.69	97.28
950.859	49.81
951.028	88.95
951.196	61.63
951.365	16.1
951.533	65.12
951.701	86.62
951.87	90.3
952.038	29.27
952.207	52.52
952.375	123.43
952.543	48.26
952.712	52.91
952.88	26.17
953.048	124.21
953.217	80.03
953.385	64.73
953.553	97.47
953.721	6.6
953.89	52.13
954.058	7.96
954.226	58.92
954.394	52.72
954.562	20.94
954.73	79.65
954.898	56.59
955.067	96.89
955.235	32.76
955.403	96.7
955.571	106.38
955.739	94.37
955.907	13.19
956.075	48.26
956.243	18.62
956.41	77.52
956.578	13.58
956.746	14.35
956.914	43.8
957.082	72.28
957.25	89.91
957.418	30.43
957.585	60.27
957.753	91.08
957.921	18.62
958.089	53.3
958.256	74.22
958.424	97.47
958.592	55.43
958.759	40.7
958.927	79.07
959.095	57.95
959.262	66.47
959.43	36.05
959.597	40.51
959.765	70.54
959.932	41.28
960.1	104.25
960.267	70.35
960.435	62.79
960.602	82.55
960.77	47.48
960.937	8.54
961.104	56.78
961.272	7.38
961.439	30.63
961.606	76.16
961.774	99.6
961.941	51.36
962.108	52.52
962.275	83.13
962.443	91.66
962.61	72.28
962.777	159.08
962.944	100.96
963.111	68.99
963.278	83.33
963.446	76.55
963.613	58.33
963.78	81.2
963.947	77.32
964.114	50.97
964.281	168.58
964.448	115.49
964.615	51.55
964.782	76.16
964.949	115.68
965.116	114.33
965.282	119.36
965.449	54.27
965.616	46.71
965.783	99.21
965.95	88.95
966.117	24.04
966.283	58.14
966.45	81.39
966.617	91.08
966.784	116.85
966.95	137.38
967.117	112
967.284	54.07
967.45	62.21
967.617	130.6
967.784	124.01
967.95	137.38
968.117	68.41
968.283	110.26
968.45	174.58
968.616	103.28
968.783	132.15
968.949	104.45
969.116	126.15
969.282	82.75
969.449	97.28
969.615	85.85
969.781	52.13
969.948	70.54
970.114	73.45
970.28	137.96
970.447	81.58
970.613	151.33
970.779	87.98
970.945	99.99
971.112	107.74
971.278	99.6
971.444	117.23
971.61	152.3
971.776	94.37
971.942	109.87
972.108	105.41
972.275	68.6
972.441	95.92
972.607	153.08
972.773	47.29
972.939	126.15
973.105	81.2
973.271	42.25
973.437	94.56
973.602	58.53
973.768	87.98
973.934	83.91
974.1	115.68
974.266	19
974.432	127.89
974.598	87.01
974.763	93.21
974.929	93.4
975.095	144.75
975.261	57.75
975.426	47.87
975.592	76.74
975.758	137.19
975.923	61.43
976.089	47.68
976.255	100.38
976.42	105.8
976.586	108.51
976.751	113.36
976.917	148.04
977.082	104.45
977.248	62.6
977.413	36.05
977.579	84.3
977.744	94.37
977.91	73.25
978.075	51.75
978.24	103.09
978.406	81.2
978.571	67.05
978.736	52.72
978.902	81.58
979.067	37.02
979.232	4.08
979.397	98.05
979.563	136.03
979.728	45.74
979.893	81
980.058	48.26
980.223	92.63
980.388	83.52
980.554	80.61
980.719	47.87
980.884	71.32
981.049	127.89
981.214	41.87
981.379	77.52
981.544	85.26
981.709	58.14
981.874	77.32
982.039	87.78
982.204	82.36
982.368	85.65
982.533	34.5
982.698	93.21
982.863	117.23
983.028	57.95
983.193	82.36
983.357	87.78
983.522	77.52
983.687	50.58
983.852	68.6
984.016	53.68
984.181	98.63
984.346	78.48
984.51	93.21
984.675	104.25
984.839	99.02
985.004	72.87
985.168	123.24
985.333	90.69
985.498	71.9
985.662	100.57
985.827	99.8
985.991	83.52
986.155	84.3
986.32	98.44
986.484	112.97
986.649	81.58
986.813	41.48
986.977	78.29
987.142	113.36
987.306	55.82
987.47	57.56
987.634	68.41
987.799	88.36
987.963	90.11
988.127	90.69
988.291	144.36
988.455	66.28
988.62	55.23
988.784	105.03
988.948	108.32
989.112	67.25
989.276	66.86
989.44	57.56
989.604	51.94
989.768	63.57
989.932	152.88
990.096	55.82
990.26	64.34
990.424	51.55
990.588	76.93
990.752	125.18
990.915	105.03
991.079	78.48
991.243	77.9
991.407	113.16
991.571	65.12
991.734	88.17
991.898	76.55
992.062	157.92
992.226	71.12
992.389	76.16
992.553	3.31
992.717	55.43
992.88	89.72
993.044	84.49
993.207	66.08
993.371	94.76
993.535	80.23
993.698	77.52
993.862	93.4
994.025	92.05
994.189	97.08
994.352	90.3
994.515	77.52
994.679	89.53
994.842	66.28
995.006	117.43
995.169	30.05
995.332	47.1
995.496	92.43
995.659	4.86
995.822	53.88
995.985	77.52
996.149	115.88
996.312	53.3
996.475	107.35
996.638	45.93
996.801	130.02
996.964	109.29
997.128	64.73
997.291	45.55
997.454	76.16
997.617	28.5
997.78	98.25
997.943	43.8
998.106	108.32
998.269	56.4
998.432	53.49
998.595	65.5
998.758	40.9
998.92	19.2
999.083	9.51
999.246	75.97
999.409	23.46
999.572	19.58
999.735	54.85
999.897	85.46
1000.06	28.69
1000.223	36.25
1000.386	76.74
1000.548	60.08
1000.711	57.95
1000.874	37.99
1001.036	25.4
1001.199	80.81
1001.361	5.44
1001.524	47.87
1001.687	78.29
1001.849	20.17
1002.012	72.87
1002.174	48.26
1002.337	68.6
1002.499	37.02
1002.661	66.47
1002.824	12.61
1002.986	47.68
1003.149	65.5
1003.311	28.11
1003.473	91.46
1003.636	38.57
1003.798	67.44
1003.96	74.61
1004.123	68.99
1004.285	27.14
1004.447	66.67
1004.609	33.53
1004.771	95.73
1004.933	6.6
1005.096	11.64
1005.258	14.93
1005.42	50
1005.582	99.02
1005.744	66.86
1005.906	0.4
1006.068	42.45
1006.23	12.42
1006.392	-17.61
1006.554	9.12
1006.716	72.67
1006.878	80.61
1007.04	5.44
1007.202	26.56
1007.363	62.98
1007.525	25.01
1007.687	44
1007.849	77.13
1008.011	3.7
1008.172	27.72
1008.334	39.54
1008.496	49.23
1008.658	-4.05
1008.819	42.06
1008.981	-7.35
1009.143	15.71
1009.304	27.92
1009.466	64.34
1009.627	115.1
1009.789	122.66
1009.95	44.77
1010.112	13.58
1010.273	44
1010.435	19.97
1010.596	34.31
1010.758	28.69
1010.919	26.95
1011.081	-0.57
1011.242	43.03
1011.403	30.43
1011.565	29.85
1011.726	46.52
1011.887	17.84
1012.049	34.7
1012.21	47.29
1012.371	96.31
1012.532	-17.42
1012.693	25.59
1012.855	9.51
1013.016	56.59
1013.177	59.5
1013.338	31.98
1013.499	109.48
1013.66	60.85
1013.821	66.28
1013.982	44.19
1014.143	48.26
1014.304	30.05
1014.465	60.08
1014.626	68.22
1014.787	19
1014.948	136.8
1015.109	-46.29
1015.27	105.03
1015.431	11.45
1015.592	12.61
1015.752	82.55
1015.913	39.73
1016.074	40.51
1016.235	21.72
1016.395	35.67
1016.556	36.83
1016.717	25.4
1016.877	67.05
1017.038	20.75
1017.199	46.32
1017.359	35.08
1017.52	18.42
1017.681	25.4
1017.841	31.98
1018.002	25.2
1018.162	3.7
1018.323	102.12
1018.483	13.58
1018.644	30.43
1018.804	-21.3
1018.964	-9.86
1019.125	36.83
1019.285	58.92
1019.446	6.6
1019.606	4.67
1019.766	-12.38
1019.926	65.7
1020.087	44.38
1020.247	-26.91
1020.407	40.32
1020.567	86.62
1020.728	22.49
1020.888	8.35
1021.048	8.93
1021.208	6.6
1021.368	-0.76
1021.528	64.92
1021.688	56.2
1021.848	63.57
1022.008	13.58
1022.168	37.22
1022.328	16.48
1022.488	44.77
1022.648	13.38
1022.808	11.64
1022.968	50.58
1023.128	16.68
1023.288	-11.22
1023.448	44
1023.608	62.98
1023.767	49.81
1023.927	12.22
1024.087	-12.77
1024.247	-0.57
1024.406	-3.28
1024.566	-22.26
1024.726	-11.22
1024.885	35.47
1025.045	38.57
1025.205	-15.48
1025.364	13.97
1025.524	34.7
1025.683	29.85
1025.843	34.7
1026.003	17.65
1026.162	66.86
1026.321	49.42
1026.481	25.98
1026.64	15.71
1026.8	43.8
1026.959	55.43
1027.119	10.28
1027.278	13.38
1027.437	-2.7
1027.597	14.93
1027.756	39.93
1027.915	29.08
1028.074	21.13
1028.234	-2.89
1028.393	12.8
1028.552	10.48
1028.711	-53.46
1028.87	41.67
1029.03	1.57
1029.189	18.23
1029.348	-36.21
1029.507	8.54
1029.666	-3.28
1029.825	8.93
1029.984	-26.91
1030.143	21.72
1030.302	16.87
1030.461	-43.38
1030.62	33.73
1030.779	60.27
1030.938	-2.31
1031.097	12.42
1031.255	44.38
1031.414	42.64
1031.573	41.48
1031.732	-46.68
1031.891	26.37
1032.049	40.9
1032.208	13.77
1032.367	-5.99
1032.525	29.85
1032.684	-5.41
1032.843	20.55
1033.001	-15.48
1033.16	172.64
1033.319	72.28
1033.477	38.57
1033.636	-10.25
1033.794	-2.89
1033.953	49.81
1034.111	45.74
1034.27	-3.86
1034.428	44.19
1034.587	-20.13
1034.745	20.17
1034.903	22.88
1035.062	43.03
1035.22	1.95
1035.378	39.54
1035.537	2.15
1035.695	33.34
1035.853	11.83
1036.011	37.41
1036.17	39.35
1036.328	-58.69
1036.486	34.89
1036.644	35.86
1036.802	-67.21
1036.96	-12.58
1037.119	24.43
1037.277	3.12
1037.435	-23.23
1037.593	16.48
1037.751	12.61
1037.909	49.42
1038.067	49.42
