Data from oakcork_FLMT105791__264__17-34-10-053.txt Node

Date: Mon Mar 20 17:34:10 GMT 2023
User: antho
Spectrometer: FLMT10579
Trigger mode: 0
Integration Time (sec): 1.000000E-1
Scans to average: 10
Electric dark correction enabled: true
Nonlinearity correction enabled: false
Boxcar width: 0
XAxis mode: Wavelengths
Number of Pixels in Spectrum: 3648
>>>>>Begin Spectral Data<<<<<
345.248	-173.23
345.464	-173.23
345.681	-173.23
345.898	-156.18
346.114	-154.82
346.331	-33.15
346.548	40.67
346.764	7.15
346.981	-25.01
347.197	-15.71
347.414	20.91
347.631	-20.36
347.847	45.32
348.064	7.93
348.28	5.22
348.497	-55.62
348.713	22.65
348.93	31.18
349.146	9.48
349.363	11.22
349.579	12.96
349.796	-7.18
350.012	2.12
350.229	35.44
350.445	8.12
350.661	-21.72
350.878	-10.09
351.094	21.1
351.311	16.26
351.527	29.43
351.743	-5.83
351.96	44.35
352.176	35.44
352.392	-29.08
352.609	60.63
352.825	-14.93
353.041	26.33
353.257	-4.47
353.474	2.31
353.69	19.36
353.906	51.91
354.122	-18.42
354.339	38.73
354.555	-1.95
354.771	-7.18
354.987	54.62
355.203	46.29
355.42	-16.48
355.636	0.95
355.852	-6.02
356.068	11.61
356.284	-39.54
356.5	61.79
356.716	-6.02
356.932	3.67
357.148	25.17
357.364	-19.39
357.58	45.32
357.796	45.32
358.012	54.62
358.228	16.84
358.444	-69.38
358.66	58.3
358.876	19.16
359.092	-0.4
359.308	14.32
359.524	19.75
359.74	11.22
359.956	8.7
360.172	10.45
360.388	36.21
360.604	24.01
360.819	73.8
361.035	20.33
361.251	46.87
361.467	2.5
361.683	51.71
361.898	17.23
362.114	12.19
362.33	33.89
362.546	49.97
362.762	0.37
362.977	12.96
363.193	-25.2
363.409	40.09
363.624	-6.22
363.84	-9.7
364.056	3.28
364.271	29.63
364.487	26.33
364.703	3.67
364.918	-20.94
365.134	-25.4
365.35	1.73
365.565	111.39
365.781	41.06
365.996	15.87
366.212	88.33
366.427	39.9
366.643	-11.06
366.858	2.7
367.074	-12.42
367.289	40.48
367.505	97.83
367.72	-42.64
367.936	18.58
368.151	40.48
368.367	51.33
368.582	-12.42
368.798	-12.42
369.013	41.25
369.228	16.65
369.444	28.27
369.659	41.25
369.874	21.1
370.09	70.9
370.305	-35.47
370.52	20.33
370.736	41.25
370.951	7.54
371.166	45.71
371.381	83.49
371.597	37.18
371.812	-0.4
372.027	-11.64
372.242	16.45
372.458	68.57
372.673	15.68
372.888	-3.12
373.103	49.78
373.318	98.41
373.533	29.63
373.749	31.76
373.964	1.92
374.179	68.96
374.394	7.35
374.609	64.5
374.824	1.15
375.039	51.91
375.254	-7.38
375.469	61.79
375.684	2.31
375.899	20.71
376.114	34.08
376.329	15.68
376.544	47.26
376.759	69.15
376.974	14.51
377.189	12.38
377.404	-0.21
377.619	29.24
377.834	-44.38
378.049	7.54
378.264	-9.12
378.478	28.46
378.693	10.06
378.908	23.43
379.123	5.8
379.338	51.71
379.553	46.87
379.767	19.36
379.982	36.6
380.197	50.16
380.412	20.52
380.626	13.74
380.841	70.31
381.056	34.66
381.271	88.91
381.485	0.18
381.7	-17.84
381.915	40.28
382.129	15.48
382.344	41.83
382.559	11.03
382.773	49.58
382.988	-3.12
383.202	36.41
383.417	20.33
383.632	93.76
383.846	32.73
384.061	34.66
384.275	17.23
384.49	15.87
384.704	60.82
384.919	33.5
385.133	22.07
385.348	41.83
385.562	-10.48
385.777	45.9
385.991	29.43
386.206	13.93
386.42	14.13
386.634	31.95
386.849	41.25
387.063	36.02
387.277	-0.98
387.492	23.62
387.706	-14.35
387.92	-7.96
388.135	62.95
388.349	33.31
388.563	29.63
388.778	26.33
388.992	46.29
389.206	60.63
389.42	80
389.635	25.95
389.849	57.72
390.063	79.81
390.277	27.69
390.491	96.66
390.706	25.95
390.92	52.68
391.134	43
391.348	38.15
391.562	1.73
391.776	21.88
391.99	18.2
392.205	84.26
392.419	12.77
392.633	13.93
392.847	54.81
393.061	6.18
393.275	70.51
393.489	16.45
393.703	8.7
393.917	77.48
394.131	6.38
394.345	68.76
394.559	64.5
394.773	19.55
394.986	10.64
395.2	42.8
395.414	73.22
395.628	19.94
395.842	23.04
396.056	30.4
396.27	-16.48
396.484	34.66
396.697	50.55
396.911	72.06
397.125	67.6
397.339	43.38
397.553	41.45
397.766	96.47
397.98	70.9
398.194	76.71
398.408	18.39
398.621	52.68
398.835	50.75
399.049	37.96
399.262	72.25
399.476	58.5
399.69	61.21
399.903	89.11
400.117	52.1
400.331	53.85
400.544	29.05
400.758	126.89
400.971	38.35
401.185	71.28
401.398	41.45
401.612	92.4
401.826	77.1
402.039	74.19
402.253	56.56
402.466	51.71
402.68	40.67
402.893	41.06
403.106	40.86
403.32	59.66
403.533	59.27
403.747	54.81
403.96	71.48
404.174	82.13
404.387	8.12
404.6	47.84
404.814	61.01
405.027	48.03
405.24	41.45
405.454	48.42
405.667	87.56
405.88	12
406.094	62.18
406.307	102.48
406.52	51.52
406.733	35.44
406.947	22.65
407.16	114.49
407.373	82.33
407.586	53.46
407.799	24.4
408.012	71.28
408.226	60.43
408.439	100.34
408.652	28.85
408.865	58.5
409.078	90.46
409.291	82.91
409.504	11.41
409.717	63.15
409.93	91.24
410.143	60.24
410.357	3.08
410.57	32.53
410.783	49
410.996	77.68
411.209	34.47
411.421	94.15
411.634	53.85
411.847	43.96
412.06	53.46
412.273	45.13
412.486	56.36
412.699	158.66
412.912	64.31
413.125	103.06
413.338	46.29
413.55	81.75
413.763	54.04
413.976	93.18
414.189	46.29
414.402	54.81
414.615	125.34
414.827	29.43
415.04	77.48
415.253	81.94
415.466	87.95
415.678	144.71
415.891	72.06
416.104	62.18
416.316	61.79
416.529	32.34
416.742	92.6
416.954	100.93
417.167	72.45
417.38	70.31
417.592	121.46
417.805	49.78
418.017	4.25
418.23	76.32
418.442	36.99
418.655	41.83
418.868	66.44
419.08	92.21
419.293	116.23
419.505	83.1
419.718	85.43
419.93	94.53
420.142	67.41
420.355	125.34
420.567	114.49
420.78	105.19
420.992	59.66
421.205	118.75
421.417	57.53
421.629	64.31
421.842	40.48
422.054	18.78
422.266	98.02
422.479	97.05
422.691	61.01
422.903	89.69
423.115	38.73
423.328	70.9
423.54	76.9
423.752	56.75
423.964	55.78
424.177	91.43
424.389	70.7
424.601	170.48
424.813	78.84
425.025	138.32
425.238	104.8
425.45	65.66
425.662	85.43
425.874	344.08
426.086	84.07
426.298	81.75
426.51	83.3
426.722	53.46
426.934	68.57
427.146	94.92
427.358	55.78
427.57	106.35
427.782	85.81
427.994	80
428.206	49.97
428.418	21.49
428.63	91.43
428.842	94.34
429.054	96.86
429.266	120.49
429.478	55.98
429.69	80.78
429.902	41.64
430.114	94.53
430.325	88.53
430.537	53.65
430.749	50.16
430.961	21.49
431.173	48.42
431.384	77.48
431.596	4.25
431.808	68.96
432.02	59.27
432.231	98.99
432.443	119.14
432.655	97.05
432.867	48.61
433.078	97.24
433.29	127.28
433.502	101.31
433.713	101.31
433.925	85.62
434.136	112.74
434.348	72.64
434.56	38.15
434.771	170.29
434.983	73.22
435.194	61.98
435.406	67.99
435.617	129.41
435.829	151.69
436.04	95.11
436.252	121.08
436.463	139.48
436.675	115.07
436.886	95.11
437.098	95.11
437.309	142
437.521	110.81
437.732	96.28
437.943	115.07
438.155	102.67
438.366	55.59
438.578	155.56
438.789	113.71
439	133.67
439.211	88.53
439.423	117.98
439.634	100.93
439.845	103.25
440.057	120.49
440.268	121.66
440.479	90.08
440.69	106.16
440.902	86.2
441.113	100.93
441.324	104.41
441.535	134.44
441.746	159.83
441.957	57.53
442.168	81.16
442.38	118.94
442.591	116.81
442.802	82.91
443.013	89.5
443.224	90.46
443.435	76.13
443.646	88.14
443.857	98.02
444.068	112.36
444.279	94.34
444.49	161.96
444.701	107.13
444.912	192.76
445.123	126.69
445.334	116.62
445.545	141.23
445.756	101.12
445.967	80.78
446.178	130.76
446.388	134.83
446.599	129.41
446.81	157.89
447.021	93.95
447.232	165.06
447.443	146.26
447.653	77.48
447.864	152.66
448.075	121.85
448.286	114.88
448.496	118.75
448.707	148.2
448.918	104.99
449.129	193.34
449.339	96.28
449.55	131.73
449.761	82.13
449.971	166.8
450.182	108.87
450.393	166.99
450.603	112.16
450.814	162.34
451.024	136.77
451.235	178.04
451.446	194.51
451.656	179.2
451.867	98.02
452.077	140.64
452.288	148.59
452.498	193.73
452.709	105.77
452.919	135.41
453.13	105.19
453.34	154.59
453.55	88.91
453.761	189.27
453.971	148.01
454.182	142.58
454.392	162.34
454.602	196.06
454.813	179.01
455.023	180.94
455.233	115.46
455.444	133.28
455.654	84.07
455.864	160.79
456.075	123.59
456.285	132.7
456.495	125.34
456.705	144.13
456.916	158.08
457.126	185.21
457.336	127.08
457.546	80.97
457.756	112.94
457.967	190.63
458.177	118.56
458.387	139.09
458.597	122.04
458.807	117.2
459.017	120.3
459.227	130.57
459.437	132.51
459.647	187.14
459.857	157.69
460.068	103.06
460.278	156.53
460.488	177.84
460.698	189.86
460.908	152.46
461.117	114.88
461.327	132.89
461.537	127.66
461.747	146.26
461.957	129.02
462.167	242.56
462.377	160.6
462.587	151.11
462.797	172.03
463.007	162.15
463.216	174.74
463.426	205.16
463.636	186.95
463.846	110.81
464.056	161.38
464.265	184.24
464.475	119.72
464.685	151.11
464.895	186.76
465.104	125.53
465.314	162.73
465.524	146.26
465.733	155.95
465.943	213.88
466.153	226.28
466.362	198.38
466.572	172.42
466.782	160.21
466.991	129.02
467.201	211.94
467.41	141.42
467.62	155.76
467.829	141.42
468.039	174.94
468.249	137.54
468.458	163.51
468.668	189.86
468.877	186.76
469.086	202.64
469.296	190.05
469.505	133.09
469.715	215.04
469.924	187.92
470.134	205.16
470.343	217.17
470.552	149.94
470.762	170.68
470.971	142.39
471.18	148.78
471.39	176.88
471.599	137.16
471.808	215.43
472.018	149.75
472.227	206.52
472.436	205.36
472.645	166.41
472.855	147.62
473.064	228.61
473.273	178.43
473.482	201.87
473.691	246.43
473.901	230.74
474.11	180.36
474.319	244.88
474.528	196.25
474.737	233.64
474.946	200.51
475.155	220.47
475.364	225.89
475.573	210.01
475.783	199.16
475.992	214.27
476.201	235.39
476.41	197.99
476.619	176.29
476.828	204.97
477.037	193.73
477.245	196.83
477.454	261.54
477.663	186.76
477.872	214.27
478.081	242.94
478.29	197.61
478.499	272.39
478.708	188.89
478.917	286.73
479.125	234.42
479.334	224.54
479.543	188.5
479.752	230.35
479.961	223.96
480.169	254.76
480.378	225.51
480.587	315.4
480.796	250.89
481.004	226.67
481.213	244.88
481.422	248.56
481.63	213.11
481.839	217.37
482.048	290.6
482.256	240.23
482.465	246.43
482.674	247.59
482.882	271.62
483.091	275.49
483.299	236.94
483.508	270.07
483.716	235.19
483.925	268.13
484.134	251.66
484.342	236.55
484.551	296.22
484.759	287.89
484.967	269.49
485.176	292.15
485.384	295.64
485.593	292.93
485.801	284.4
486.01	269.29
486.218	275.88
486.426	209.23
486.635	246.62
486.843	248.37
487.051	227.44
487.26	238.68
487.468	297.58
487.676	284.02
487.885	255.92
488.093	273.17
488.301	274.72
488.509	272.97
488.717	320.64
488.926	269.49
489.134	251.27
489.342	290.41
489.55	239.46
489.758	286.15
489.967	251.47
490.175	371.4
490.383	228.61
490.591	321.6
490.799	232.87
491.007	299.9
491.215	286.54
491.423	287.89
491.631	291.77
491.839	291.19
492.047	311.14
492.255	266.19
492.463	242.36
492.671	299.52
492.879	343.3
493.087	304.55
493.295	312.11
493.503	341.17
493.711	330.9
493.919	362.29
494.127	330.32
494.334	338.65
494.542	287.31
494.75	324.51
494.958	296.22
495.166	342.14
495.374	314.44
495.581	331.68
495.789	335.36
495.997	368.88
496.205	315.79
496.412	319.67
496.62	309.98
496.828	312.3
497.035	294.09
497.243	351.44
497.451	325.87
497.658	333.42
497.866	330.71
498.074	364.42
498.281	291.77
498.489	405.11
498.696	339.04
498.904	322.38
499.112	302.04
499.319	381.67
499.527	320.25
499.734	379.53
499.942	281.3
500.149	326.45
500.357	320.64
500.564	288.09
500.771	352.22
500.979	322.19
501.186	316.95
501.394	341.75
501.601	364.62
501.808	338.65
502.016	345.24
502.223	321.8
502.43	342.34
502.638	353.19
502.845	310.17
503.052	400.65
503.26	296.61
503.467	383.6
503.674	352.22
503.881	338.27
504.089	410.53
504.296	373.14
504.503	339.82
504.71	357.64
504.917	311.92
505.125	341.95
505.332	331.49
505.539	360.35
505.746	437.66
505.953	386.7
506.16	365.2
506.367	442.89
506.574	422.35
506.781	412.08
506.988	322.19
507.195	376.05
507.402	368.88
507.609	387.28
507.816	348.34
508.023	367.52
508.23	357.25
508.437	340.4
508.644	385.73
508.851	407.63
509.058	401.04
509.265	373.72
509.472	402.98
509.679	492.68
509.885	376.05
510.092	385.93
510.299	380.12
510.506	390.77
510.713	426.81
510.92	400.07
511.126	424.68
511.333	449.86
511.54	427.2
511.746	450.06
511.953	439.6
512.16	441.34
512.367	380.31
512.573	385.73
512.78	421
512.987	405.11
513.193	421.58
513.4	341.75
513.606	384.96
513.813	413.44
514.02	387.09
514.226	493.07
514.433	475.83
514.639	389.42
514.846	392.32
515.052	410.73
515.259	401.23
515.465	435.33
515.672	401.23
515.878	493.07
516.085	413.83
516.291	466.33
516.497	408.6
516.704	404.33
516.91	380.12
517.117	367.72
517.323	372.17
517.529	380.5
517.736	399.3
517.942	393.1
518.148	388.25
518.354	409.18
518.561	388.25
518.767	429.72
518.973	442.89
519.179	454.13
519.386	393.68
519.592	397.94
519.798	377.21
520.004	500.63
520.21	410.53
520.417	463.43
520.623	471.76
520.829	487.06
521.035	482.41
521.241	481.06
521.447	477.57
521.653	535.31
521.859	445.6
522.065	511.86
522.271	551.19
522.477	491.71
522.683	511.48
522.889	555.46
523.095	496.56
523.301	470.79
523.507	468.46
523.713	520.78
523.919	480.09
524.125	530.08
524.331	481.06
524.537	532.01
524.742	534.53
524.948	529.5
525.154	540.34
525.36	611.64
525.566	545.58
525.772	545.96
525.977	507.02
526.183	558.17
526.389	586.84
526.595	516.32
526.8	501.01
527.006	467.3
527.212	463.43
527.417	485.51
527.623	457.03
527.829	545.58
528.034	555.46
528.24	520.58
528.446	502.56
528.651	590.53
528.857	512.45
529.062	600.99
529.268	534.92
529.473	544.03
529.679	536.47
529.884	601.76
530.09	589.94
530.295	610.48
530.501	590.14
530.706	578.71
530.912	534.14
531.117	545.58
531.323	570.18
531.528	589.17
531.733	581.03
531.939	556.81
532.144	586.46
532.35	606.03
532.555	624.82
532.76	621.52
532.966	610.68
533.171	607.38
533.376	588.98
533.581	578.51
533.787	585.29
533.992	620.17
534.197	643.81
534.402	575.99
534.607	566.69
534.813	685.07
535.018	585.49
535.223	589.75
535.428	594.4
535.633	644.39
535.838	645.55
536.043	600.21
536.249	688.37
536.454	613.97
536.659	645.55
536.864	582.58
537.069	622.88
537.274	643.42
537.479	635.86
537.684	638.57
537.889	590.53
538.094	682.36
538.299	642.06
538.504	639.54
538.708	620.94
538.913	635.09
539.118	609.13
539.323	636.06
539.528	617.46
539.733	618.62
539.938	654.07
540.142	643.61
540.347	619.59
540.552	607.58
540.757	668.61
540.962	611.26
541.166	587.04
541.371	574.25
541.576	614.94
541.781	566.31
541.985	620.94
542.19	641.09
542.395	674.42
542.599	685.07
542.804	662.99
543.008	683.72
543.213	623.66
543.418	586.65
543.622	651.94
543.827	625.4
544.031	681.78
544.236	719.37
544.44	636.83
544.645	749.59
544.849	643.03
545.054	686.62
545.258	736.42
545.463	704.64
545.667	659.89
545.872	666.67
546.076	662.41
546.281	685.27
546.485	646.91
546.689	653.11
546.894	694.37
547.098	634.51
547.302	605.83
547.507	660.66
547.711	683.72
547.915	723.05
548.119	626.95
548.324	665.12
548.528	706.58
548.732	675
548.936	661.24
549.141	694.37
549.345	666.47
549.549	668.22
549.753	678.49
549.957	751.72
550.161	720.34
550.366	662.99
550.57	660.66
550.774	676.36
550.978	645.94
551.182	706.39
551.386	670.93
551.59	667.25
551.794	689.72
551.998	678.1
552.202	674.22
552.406	632.57
552.61	674.22
552.814	673.45
553.018	724.02
553.222	671.12
553.426	671.12
553.63	731.38
553.833	677.71
554.037	626.56
554.241	699.8
554.445	678.1
554.649	663.57
554.853	676.16
555.056	716.07
555.26	696.12
555.464	680.81
555.668	673.45
555.871	726.92
556.075	726.54
556.279	668.8
556.483	636.06
556.686	692.44
556.89	668.61
557.094	693.99
557.297	629.27
557.501	690.5
557.704	615.71
557.908	689.34
558.112	633.54
558.315	702.12
558.519	650.2
558.722	680.23
558.926	686.24
559.129	626.76
559.333	638.96
559.536	614.55
559.74	623.07
559.943	615.33
560.147	611.45
560.35	619.01
560.553	617.26
560.757	606.41
560.96	670.54
561.164	621.52
561.367	696.12
561.57	636.44
561.774	667.25
561.977	634.89
562.18	613
562.384	680.42
562.587	617.65
562.79	590.14
562.993	631.99
563.197	662.02
563.4	693.99
563.603	669.38
563.806	666.28
564.009	628.89
564.212	656.59
564.416	592.46
564.619	658.72
564.822	589.17
565.025	665.31
565.228	658.72
565.431	627.34
565.634	563.79
565.837	603.89
566.04	565.34
566.243	616.88
566.446	544.8
566.649	596.53
566.852	583.16
567.055	595.76
567.258	606.41
567.461	632.37
567.664	636.83
567.867	544.41
568.07	581.03
568.273	583.55
568.475	616.88
568.678	576.58
568.881	583.74
569.084	615.71
569.287	515.74
569.489	540.93
569.692	597.5
569.895	572.51
570.098	505.28
570.3	534.53
570.503	480.48
570.706	520.39
570.909	497.33
571.111	495.78
571.314	516.9
571.516	530.66
571.719	560.49
571.922	519.23
572.124	500.24
572.327	524.26
572.529	483.38
572.732	488.03
572.935	520.39
573.137	563.98
573.34	530.27
573.542	541.31
573.745	536.66
573.947	537.24
574.15	506.44
574.352	499.27
574.554	547.9
574.757	479.51
574.959	468.27
575.162	513.03
575.364	517.68
575.566	557.01
575.769	463.04
575.971	519.23
576.173	428.94
576.376	496.75
576.578	522.91
576.78	551.97
576.982	409.37
577.185	486.48
577.387	452.96
577.589	438.63
577.791	497.91
577.993	502.95
578.196	473.7
578.398	504.5
578.6	534.73
578.802	448.51
579.004	433.78
579.206	455.48
579.408	480.48
579.61	455.68
579.812	502.76
580.014	488.23
580.216	481.25
580.418	465.36
580.62	435.33
580.822	403.37
581.024	485.71
581.226	491.52
581.428	460.52
581.63	536.66
581.832	444.63
582.034	495.01
582.236	470.21
582.438	498.69
582.64	523.3
582.841	533.56
583.043	564.18
583.245	507.21
583.447	507.8
583.649	481.83
583.85	486.1
584.052	514.77
584.254	439.02
584.456	525.43
584.657	442.89
584.859	468.27
585.061	486.48
585.262	445.99
585.464	415.96
585.666	478.54
585.867	421
586.069	534.14
586.27	490.94
586.472	478.15
586.674	441.53
586.875	463.62
587.077	442.12
587.278	474.86
587.48	455.29
587.681	552.36
587.883	488.42
588.084	422.55
588.285	453.93
588.487	431.65
588.688	457.81
588.89	458.58
589.091	427.97
589.292	425.65
589.494	421.77
589.695	425.45
589.896	360.35
590.098	364.03
590.299	417.12
590.5	372.37
590.702	373.53
590.903	396.58
591.104	438.24
591.305	435.72
591.507	466.14
591.708	435.53
591.909	408.98
592.11	498.5
592.311	451.03
592.512	407.43
592.714	389.42
592.915	397.75
593.116	408.02
593.317	433.59
593.518	401.23
593.719	398.72
593.92	451.03
594.121	470.21
594.322	421.77
594.523	437.85
594.724	391.16
594.925	399.1
595.126	425.26
595.327	458.78
595.528	425.45
595.729	433.4
595.929	421.38
596.13	392.13
596.331	422.74
596.532	426.42
596.733	451.41
596.934	444.83
597.135	455.87
597.335	432.62
597.536	379.92
597.737	426.23
597.938	417.7
598.138	440.95
598.339	405.69
598.54	399.88
598.74	438.82
598.941	432.04
599.142	472.73
599.342	417.9
599.543	374.11
599.744	417.9
599.944	409.57
600.145	368.49
600.345	409.76
600.546	483.96
600.746	480.67
600.947	467.69
601.147	414.6
601.348	464.2
601.548	407.24
601.749	437.27
601.949	375.27
602.15	398.91
602.35	409.37
602.551	453.55
602.751	378.57
602.951	407.63
603.152	356.67
603.352	432.82
603.552	416.93
603.753	420.8
603.953	420.61
604.153	419.06
604.354	389.61
604.554	439.21
604.754	411.89
604.954	368.88
605.155	421.38
605.355	413.25
605.555	453.74
605.755	458.97
605.955	411.5
606.155	428.36
606.356	419.45
606.556	415.18
606.756	424.68
606.956	361.13
607.156	431.46
607.356	388.06
607.556	440.18
607.756	399.49
607.956	450.64
608.156	402.4
608.356	391.16
608.556	439.6
608.756	422.93
608.956	389.03
609.156	402.78
609.356	372.95
609.556	421.58
609.755	398.91
609.955	377.79
610.155	411.89
610.355	425.26
610.555	385.73
610.755	404.14
610.954	328.39
611.154	424.87
611.354	420.22
611.554	368.1
611.753	385.73
611.953	340.98
612.153	423.71
612.352	407.43
612.552	360.93
612.752	343.89
612.951	359
613.151	392.13
613.351	355.12
613.55	375.85
613.75	383.22
613.949	373.92
614.149	395.23
614.348	362.87
614.548	348.34
614.747	310.75
614.947	351.25
615.146	335.17
615.346	394.84
615.545	378.95
615.745	392.71
615.944	408.21
616.144	374.3
616.343	384.18
616.542	338.07
616.742	380.12
616.941	369.07
617.14	309.59
617.34	380.12
617.539	364.42
617.738	315.4
617.938	405.5
618.137	343.3
618.336	308.62
618.535	362.68
618.734	355.12
618.934	356.87
619.133	351.05
619.332	362.68
619.531	356.87
619.73	367.33
619.929	384.18
620.128	373.33
620.328	419.45
620.527	342.53
620.726	350.67
620.925	369.65
621.124	330.52
621.323	366.55
621.522	329.94
621.721	327.42
621.92	311.14
622.119	365.39
622.318	326.84
622.517	337.3
622.715	327.22
622.914	300.87
623.113	332.26
623.312	292.74
623.511	356.48
623.71	321.02
623.909	320.83
624.107	362.29
624.306	295.84
624.505	275.3
624.704	302.42
624.902	330.71
625.101	391.16
625.3	362.1
625.499	307.65
625.697	317.34
625.896	289.64
626.095	359.97
626.293	315.79
626.492	304.75
626.69	353.19
626.889	320.25
627.088	359.38
627.286	288.28
627.485	315.4
627.683	301.07
627.882	343.11
628.08	275.1
628.279	309.01
628.477	351.44
628.676	268.13
628.874	340.79
629.073	308.62
629.271	279.37
629.469	315.79
629.668	299.52
629.866	294.67
630.065	284.99
630.263	328.97
630.461	298.74
630.66	304.94
630.858	338.27
631.056	354.35
631.254	346.99
631.453	269.68
631.651	324.9
631.849	330.32
632.047	341.95
632.245	302.42
632.444	319.67
632.642	337.3
632.84	325.29
633.038	301.07
633.236	277.82
633.434	269.1
633.632	272.39
633.83	280.72
634.028	328
634.227	313.66
634.425	361.32
634.623	316.18
634.821	328.77
635.019	301.26
635.216	261.54
635.414	314.05
635.612	306.69
635.81	297.58
636.008	350.28
636.206	295.25
636.404	329.55
636.602	292.54
636.8	301.26
636.997	329.35
637.195	332.84
637.393	306.1
637.591	368.3
637.789	297.19
637.986	279.75
638.184	318.31
638.382	347.57
638.58	351.64
638.777	344.47
638.975	320.64
639.173	296.8
639.37	311.92
639.568	323.93
639.765	325.48
639.963	287.89
640.161	340.59
640.358	341.56
640.556	285.76
640.753	265.61
640.951	285.18
641.148	322.57
641.346	293.9
641.543	314.63
641.741	303.2
641.938	298.55
642.136	296.03
642.333	259.61
642.531	353.38
642.728	368.88
642.925	316.37
643.123	299.32
643.32	304.36
643.517	299.32
643.715	308.04
643.912	274.14
644.109	316.18
644.306	290.99
644.504	261.16
644.701	313.27
644.898	320.64
645.095	279.56
645.293	280.72
645.49	280.92
645.687	289.44
645.884	336.72
646.081	253.41
646.278	277.04
646.475	254.18
646.672	254.76
646.87	325.29
647.067	298.35
647.264	262.12
647.461	236.55
647.658	229.96
647.855	314.63
648.052	282.66
648.249	224.73
648.446	260.19
648.642	238.29
648.839	234.61
649.036	247.01
649.233	248.95
649.43	240.04
649.627	236.36
649.824	238.87
650.021	262.51
650.217	227.25
650.414	256.12
650.611	271.23
650.808	261.16
651.004	255.15
651.201	285.37
651.398	311.14
651.595	253.79
651.791	258.44
651.988	277.62
652.185	225.7
652.381	257.28
652.578	201.67
652.775	242.75
652.971	247.01
653.168	248.56
653.364	272.39
653.561	175.71
653.757	246.43
653.954	248.95
654.15	240.23
654.347	284.4
654.543	264.06
654.74	197.41
654.936	214.07
655.133	266.77
655.329	249.34
655.525	244.69
655.722	261.54
655.918	238.49
656.115	287.31
656.311	226.09
656.507	206.32
656.704	168.16
656.9	208.07
657.096	228.61
657.292	185.01
657.489	248.37
657.685	245.07
657.881	218.14
658.077	222.6
658.273	222.21
658.47	286.92
658.666	231.71
658.862	247.59
659.058	219.5
659.254	252.44
659.45	208.07
659.646	233.26
659.842	219.69
660.038	256.7
660.234	200.32
660.43	233.26
660.626	288.09
660.822	257.28
661.018	274.14
661.214	220.27
661.41	198.57
661.606	253.21
661.802	277.04
661.998	232.67
662.194	191.21
662.39	250.11
662.586	251.86
662.781	253.6
662.977	233.06
663.173	257.09
663.369	239.46
663.564	257.09
663.76	268.13
663.956	205.16
664.152	294.67
664.347	176.1
664.543	232.09
664.739	223.57
664.934	203.81
665.13	169.32
665.326	256.7
665.521	237.52
665.717	180.36
665.912	204.97
666.108	182.69
666.304	220.47
666.499	198.77
666.695	160.21
666.89	207.87
667.086	283.24
667.281	246.43
667.477	272.97
667.672	242.75
667.867	230.16
668.063	240.04
668.258	219.11
668.454	204.19
668.649	292.35
668.844	226.47
669.04	256.31
669.235	211.36
669.43	196.44
669.626	184.62
669.821	237.13
670.016	182.69
670.211	207.1
670.407	174.55
670.602	220.66
670.797	206.91
670.992	263.09
671.187	205.94
671.382	253.41
671.578	190.82
671.773	234.81
671.968	172.61
672.163	226.28
672.358	207.29
672.553	199.54
672.748	205.36
672.943	272
673.138	209.62
673.333	230.74
673.528	201.87
673.723	229.57
673.918	197.61
674.113	181.53
674.308	279.56
674.503	232.87
674.698	225.31
674.892	232.09
675.087	243.52
675.282	225.31
675.477	192.57
675.672	226.67
675.867	189.27
676.061	170.68
676.256	168.74
676.451	190.44
676.646	201.48
676.84	198.96
677.035	180.94
677.23	157.31
677.424	222.79
677.619	252.44
677.814	240.23
678.008	235.39
678.203	157.11
678.397	193.92
678.592	220.86
678.787	263.48
678.981	176.68
679.176	222.6
679.37	213.69
679.565	187.14
679.759	177.46
679.954	233.06
680.148	259.22
680.342	241.97
680.537	222.6
680.731	203.03
680.926	229.57
681.12	218.14
681.314	166.41
681.509	176.29
681.703	220.27
681.897	226.86
682.092	220.47
682.286	208.65
682.48	272.39
682.674	224.92
682.869	197.41
683.063	208.65
683.257	268.71
683.451	188.11
683.645	226.09
683.839	202.64
684.034	197.41
684.228	245.66
684.422	169.71
684.616	186.56
684.81	230.54
685.004	217.76
685.198	188.69
685.392	216.4
685.586	159.44
685.78	224.54
685.974	211.36
686.168	224.73
686.362	263.87
686.556	170.09
686.75	176.1
686.944	202.06
687.138	243.72
687.331	157.5
687.525	189.47
687.719	128.63
687.913	197.99
688.107	165.64
688.301	161.18
688.494	185.4
688.688	145.29
688.882	137.93
689.076	135.99
689.269	158.47
689.463	235.39
689.657	168.35
689.85	132.7
690.044	167.19
690.238	162.73
690.431	182.3
690.625	161.38
690.818	171.45
691.012	186.56
691.205	204.77
691.399	146.07
691.593	213.11
691.786	226.47
691.98	228.99
692.173	236.94
692.366	223.76
692.56	204.58
692.753	252.82
692.947	201.29
693.14	247.59
693.333	239.26
693.527	171.64
693.72	232.29
693.914	186.56
694.107	204.39
694.3	212.33
694.493	205.94
694.687	239.84
694.88	181.72
695.073	258.64
695.266	255.34
695.46	230.93
695.653	282.27
695.846	280.34
696.039	209.62
696.232	206.91
696.425	228.8
696.618	233.26
696.812	250.69
697.005	297.58
697.198	336.33
697.391	297.58
697.584	297.19
697.777	341.56
697.97	320.25
698.163	316.57
698.356	274.91
698.549	352.02
698.742	314.24
698.935	312.89
699.127	316.57
699.32	300.68
699.513	284.79
699.706	305.33
699.899	357.25
700.092	298.16
700.285	304.17
700.477	290.41
700.67	337.49
700.863	351.44
701.056	415.38
701.248	376.82
701.441	386.32
701.634	339.04
701.826	416.93
702.019	341.17
702.212	400.07
702.404	344.85
702.597	335.17
702.79	359.58
702.982	382.83
703.175	419.64
703.367	436.5
703.56	409.95
703.752	489.58
703.945	437.08
704.137	441.73
704.33	463.62
704.522	457.61
704.715	432.62
704.907	494.23
705.1	473.11
705.292	465.17
705.484	437.66
705.677	503.34
705.869	507.99
706.061	518.26
706.254	526.78
706.446	480.67
706.638	479.7
706.831	558.94
707.023	495.01
707.215	576.96
707.407	581.23
707.599	545.77
707.792	583.55
707.984	555.07
708.176	605.06
708.368	563.4
708.56	563.4
708.752	555.65
708.944	600.41
709.136	608.74
709.329	587.04
709.521	671.51
709.713	659.89
709.905	639.74
710.097	675.97
710.289	618.04
710.481	618.62
710.672	681.39
710.864	674.03
711.056	722.27
711.248	692.05
711.44	692.44
711.632	645.74
711.824	693.99
712.016	730.8
712.207	737.97
712.399	724.21
712.591	811.78
712.783	726.34
712.975	775.17
713.166	699.61
713.358	735.06
713.55	790.09
713.741	789.89
713.933	768
714.125	785.82
714.316	739.13
714.508	832.71
714.7	849.95
714.891	828.83
715.083	887.15
715.274	805.39
715.466	842.59
715.657	859.64
715.849	775.94
716.04	817.6
716.232	792.02
716.423	864.1
716.615	800.16
716.806	778.85
716.998	782.72
717.189	765.87
717.381	715.49
717.572	680.62
717.763	728.67
717.955	736.22
718.146	713.75
718.337	683.52
718.528	661.44
718.72	646.71
718.911	689.14
719.102	667.44
719.293	720.53
719.485	679.65
719.676	693.79
719.867	662.21
720.058	675.39
720.249	686.82
720.44	704.64
720.632	727.5
720.823	748.62
721.014	856.73
721.205	805.97
721.396	865.07
721.587	884.05
721.778	907.69
721.969	897.42
722.16	954.96
722.351	907.69
722.542	985.58
722.733	1051.26
722.924	970.66
723.115	1004.56
723.305	1014.25
723.496	1022.78
723.687	923.58
723.878	960.2
724.069	946.44
724.26	1000.49
724.45	935.4
724.641	905.36
724.832	949.93
725.023	939.85
725.213	961.16
725.404	960.39
725.595	966.98
725.785	942.95
725.976	974.34
726.167	933.26
726.357	964.07
726.548	1032.27
726.739	988.29
726.929	1030.53
727.12	1052.23
727.31	1072.96
727.501	1030.91
727.691	1076.25
727.882	1056.68
728.072	1061.52
728.263	1076.83
728.453	1105.31
728.644	1097.76
728.834	1094.66
729.024	1085.16
729.215	1116.94
729.405	1081.09
729.596	1167.12
729.786	1138.83
729.976	1165.18
730.167	1158.98
730.357	1165.57
730.547	1168.47
730.737	1192.11
730.928	1211.68
731.118	1279.68
731.308	1192.11
731.498	1199.09
731.688	1257.4
731.879	1260.12
732.069	1306.23
732.259	1339.55
732.449	1289.76
732.639	1369.2
732.829	1395.16
733.019	1422.86
733.209	1423.64
733.399	1466.84
733.589	1519.74
733.779	1480.79
733.969	1479.24
734.159	1517.41
734.349	1558.87
734.539	1617
734.729	1557.52
734.919	1624.55
735.109	1640.25
735.299	1561.2
735.488	1589.87
735.678	1616.8
735.868	1638.89
736.058	1643.93
736.248	1596.65
736.437	1573.6
736.627	1587.35
736.817	1680.35
737.007	1647.03
737.196	1688.1
737.386	1647.42
737.576	1664.66
737.765	1663.89
737.955	1684.62
738.144	1706.12
738.334	1739.45
738.524	1694.69
738.713	1682.68
738.903	1715.62
739.092	1748.94
739.282	1778.58
739.471	1743.9
739.661	1735.77
739.85	1774.51
740.04	1784.2
740.229	1796.6
740.419	1819.66
740.608	1802.41
740.797	1799.51
740.987	1893.67
741.176	1855.89
741.365	1844.84
741.555	1814.23
741.744	1854.34
741.933	1837.68
742.123	1896.38
742.312	1877.01
742.501	1921.18
742.69	1933.19
742.88	1855.11
743.069	1982.21
743.258	1856.86
743.447	1944.24
743.636	1949.08
743.825	1907.23
744.014	1945.4
744.204	1937.07
744.393	1901.03
744.582	1940.36
744.771	1979.69
744.96	1986.09
745.149	1975.43
745.338	1906.07
745.527	1970.39
745.716	1954.89
745.905	1948.69
746.094	1986.09
746.283	2018.83
746.471	1978.34
746.66	2060.49
746.849	1992.48
747.038	2026.77
747.227	1981.05
747.416	1985.51
747.604	1962.64
747.793	1972.14
747.982	2009.14
748.171	1987.44
748.359	2028.9
748.548	2012.24
748.737	2016.51
748.926	2052.54
749.114	1935.71
749.303	2006.24
749.491	1983.18
749.68	1991.9
749.869	2046.34
750.057	1992.09
750.246	1996.55
750.434	1994.42
750.623	2019.41
750.811	1982.02
751	1997.13
751.188	1980.08
751.377	2016.51
751.565	1987.83
751.754	1948.89
751.942	1932.03
752.131	2000.23
752.319	1959.16
752.507	1940.75
752.696	2005.27
752.884	2022.32
753.072	1970.78
753.261	2001.97
753.449	1954.7
753.637	1964.58
753.825	2055.64
754.014	1953.92
754.202	2008.37
754.39	2021.15
754.578	2028.9
754.766	1934.94
754.955	1951.99
755.143	2038.2
755.331	1953.54
755.519	1963.03
755.707	1959.54
755.895	1941.14
756.083	1966.52
756.271	1911.49
756.459	1898.51
756.647	1994.61
756.835	1939.78
757.023	1922.73
757.211	1966.71
757.399	1951.6
757.587	1945.4
757.775	1913.04
757.963	1920.21
758.151	1917.69
758.339	1909.17
758.526	1881.27
758.714	1922.93
758.902	1822.95
759.09	1801.25
759.278	1679.77
759.465	1550.35
759.653	1307.2
759.841	1219.82
760.028	1016.38
760.216	869.91
760.404	875.72
760.591	725.37
760.779	604.28
760.967	503.73
761.154	404.33
761.342	466.14
761.529	451.61
761.717	467.11
761.905	461.3
762.092	497.53
762.28	431.85
762.467	457.61
762.655	398.52
762.842	433.78
763.029	447.35
763.217	448.12
763.404	422.93
763.592	474.08
763.779	402.59
763.966	454.9
764.154	492.88
764.341	541.51
764.528	514.19
764.716	566.89
764.903	588.01
765.09	636.25
765.277	635.67
765.465	747.27
765.652	803.45
765.839	821.08
766.026	934.04
766.213	930.55
766.4	985.38
766.588	1136.31
766.775	1069.27
766.962	1180.29
767.149	1159.95
767.336	1308.55
767.523	1259.73
767.71	1374.81
767.897	1414.92
768.084	1501.72
768.271	1489.32
768.458	1511.41
768.645	1578.25
768.832	1526.71
769.019	1518.19
769.206	1573.6
769.392	1623
769.579	1717.36
769.766	1663.3
769.953	1648.97
770.14	1670.47
770.327	1688.3
770.513	1726.66
770.7	1775.87
770.887	1669.31
771.073	1748.75
771.26	1709.61
771.447	1692.75
771.634	1716.58
771.82	1783.43
772.007	1714.45
772.193	1733.83
772.38	1780.71
772.567	1761.15
772.753	1733.83
772.94	1755.53
773.126	1774.13
773.313	1765.8
773.499	1760.56
773.686	1772.38
773.872	1737.32
774.059	1734.02
774.245	1680.16
774.432	1709.8
774.618	1625.33
774.804	1714.65
774.991	1693.72
775.177	1695.27
775.363	1677.83
775.55	1748.94
775.736	1677.45
775.922	1692.37
776.109	1696.05
776.295	1715.23
776.481	1685.58
776.667	1736.54
776.853	1672.8
777.04	1654.59
777.226	1689.65
777.412	1743.52
777.598	1656.14
777.784	1641.6
777.97	1663.69
778.156	1695.47
778.342	1652.65
778.528	1664.66
778.715	1619.52
778.901	1645.29
779.087	1667.57
779.272	1641.99
779.458	1617.39
779.644	1636.95
779.83	1644.9
780.016	1702.83
780.202	1640.05
780.388	1641.6
780.574	1578.83
780.76	1583.87
780.946	1648.19
781.131	1644.51
781.317	1577.86
781.503	1618.35
781.689	1615.06
781.874	1677.06
782.06	1595.3
782.246	1609.05
782.432	1576.89
782.617	1615.64
782.803	1632.11
782.989	1546.09
783.174	1565.66
783.36	1549.57
783.545	1579.8
783.731	1579.41
783.916	1495.52
784.102	1581.54
784.288	1554.22
784.473	1545.51
784.659	1536.01
784.844	1584.45
785.029	1522.06
785.215	1504.43
785.4	1486.22
785.586	1602.27
785.771	1476.73
785.956	1524.39
786.142	1523.81
786.327	1488.54
786.512	1485.83
786.698	1488.54
786.883	1441.66
787.068	1470.33
787.254	1490.68
787.439	1462.78
787.624	1474.01
787.809	1439.72
787.994	1472.27
788.18	1518.77
788.365	1420.15
788.55	1446.11
788.735	1459.48
788.92	1446.11
789.105	1432.36
789.29	1459.87
789.475	1368.81
789.66	1396.9
789.845	1397.87
790.03	1391.67
790.215	1436.62
790.4	1420.73
790.585	1474.21
790.77	1393.03
790.955	1317.47
791.14	1376.36
791.325	1434.68
791.51	1325.8
791.695	1376.56
791.879	1349.82
792.064	1335.87
792.249	1409.49
792.434	1359.51
792.618	1402.52
792.803	1396.13
792.988	1374.04
793.173	1382.37
793.357	1411.63
793.542	1325.8
793.727	1411.04
793.911	1422.86
794.096	1406.98
794.281	1361.45
794.465	1446.89
794.65	1409.69
794.834	1411.82
795.019	1421.89
795.203	1410.66
795.388	1434.29
795.572	1437.78
795.757	1406.78
795.941	1398.06
796.126	1409.3
796.31	1358.54
796.494	1375.2
796.679	1362.03
796.863	1380.43
797.048	1423.44
797.232	1443.01
797.416	1426.74
797.601	1400.58
797.785	1496.87
797.969	1430.23
798.153	1386.63
798.338	1430.61
798.522	1424.03
798.706	1403.49
798.89	1428.29
799.074	1497.46
799.258	1445.53
799.443	1418.6
799.627	1397.29
799.811	1430.61
799.995	1389.35
800.179	1420.73
800.363	1385.86
800.547	1427.9
800.731	1430.23
800.915	1359.12
801.099	1377.33
801.283	1412.79
801.467	1418.79
801.651	1388.76
801.835	1427.9
802.019	1403.88
802.202	1422.09
802.386	1387.99
802.57	1336.84
802.754	1385.08
802.938	1349.63
803.121	1367.26
803.305	1450.96
803.489	1376.75
803.673	1393.61
803.856	1415.31
804.04	1393.61
804.224	1394.38
804.407	1392.45
804.591	1364.55
804.775	1356.8
804.958	1407.75
805.142	1462.97
805.326	1408.14
805.509	1426.35
805.693	1411.04
805.876	1451.15
806.06	1409.49
806.243	1420.54
806.427	1414.73
806.61	1453.48
806.794	1369.58
806.977	1459.29
807.16	1401.75
807.344	1402.71
807.527	1408.53
807.71	1420.15
807.894	1432.55
808.077	1436.23
808.26	1370.55
808.444	1351.95
808.627	1431.39
808.81	1391.48
808.993	1362.22
809.177	1314.37
809.36	1364.16
809.543	1392.64
809.726	1312.04
809.909	1302.74
810.092	1301
810.276	1285.5
810.459	1337.61
810.642	1279.3
810.825	1274.65
811.008	1279.49
811.191	1247.13
811.374	1198.7
811.557	1249.27
811.74	1311.46
811.923	1232.99
812.106	1190.56
812.289	1180.68
812.472	1189.59
812.654	1254.5
812.837	1184.55
813.02	1154.52
813.203	1135.34
813.386	1075.47
813.569	1080.51
813.751	1051.26
813.934	1109.19
814.117	1041.76
814.3	999.14
814.482	1017.93
814.665	1017.54
814.848	968.72
815.03	949.35
815.213	970.66
815.396	935.4
815.578	928.81
815.761	881.15
815.943	961.94
816.126	889.86
816.309	889.48
816.491	840.07
816.674	781.56
816.856	847.82
817.039	825.93
817.221	896.45
817.403	837.94
817.586	854.8
817.768	890.06
817.951	802.48
818.133	815.66
818.315	821.67
818.498	859.64
818.68	937.14
818.862	881.73
819.045	929.2
819.227	896.65
819.409	848.98
819.591	861.38
819.774	877.66
819.956	858.87
820.138	918.15
820.32	896.45
820.502	960
820.684	952.25
820.866	986.74
821.048	970.85
821.231	1026.65
821.413	963.88
821.595	1008.83
821.777	994.1
821.959	965.04
822.141	1007.47
822.323	930.94
822.505	907.3
822.686	872.04
822.868	862.93
823.05	781.75
823.232	762.77
823.414	730.6
823.596	786.6
823.778	762.57
823.96	795.7
824.141	804.62
824.323	801.52
824.505	802.87
824.687	843.17
824.868	886.96
825.05	933.07
825.232	955.55
825.413	990.03
825.595	960.2
825.777	895.48
825.958	966.78
826.14	944.11
826.321	1014.44
826.503	931.91
826.685	959.61
826.866	1013.86
827.048	986.16
827.229	952.06
827.411	915.44
827.592	884.44
827.773	869.33
827.955	869.52
828.136	856.15
828.318	817.02
828.499	866.62
828.68	828.64
828.862	854.22
829.043	907.11
829.224	859.06
829.406	834.26
829.587	827.28
829.768	835.42
829.949	845.88
830.131	839.88
830.312	917.57
830.493	821.47
830.674	853.63
830.855	855.38
831.036	855.96
831.218	904.59
831.399	909.05
831.58	876.69
831.761	872.43
831.942	860.42
832.123	843.17
832.304	839.3
832.485	844.53
832.666	840.07
832.847	846.27
833.028	846.85
833.209	851.12
833.389	848.79
833.57	815.27
833.751	832.32
833.932	890.06
834.113	890.25
834.294	855.18
834.475	879.98
834.655	901.49
834.836	894.9
835.017	857.12
835.198	792.22
835.378	868.17
835.559	877.85
835.74	877.66
835.92	877.08
836.101	839.49
836.281	903.43
836.462	883.08
836.643	912.92
836.823	911.37
837.004	922.22
837.184	942.95
837.365	908.08
837.545	922.03
837.726	908.46
837.906	948.76
838.087	913.11
838.267	906.33
838.448	882.7
838.628	900.91
838.808	903.04
838.989	944.31
839.169	849.76
839.349	907.88
839.53	913.89
839.71	922.03
839.89	879.21
840.07	955.93
840.251	867.78
840.431	932.1
840.611	939.85
840.791	896.45
840.971	920.28
841.151	858.09
841.332	868.17
841.512	923.96
841.692	848.6
841.872	910.6
842.052	904.4
842.232	924.74
842.412	818.18
842.592	891.8
842.772	909.63
842.952	903.62
843.132	855.96
843.312	886.38
843.492	858.09
843.672	892.96
843.851	850.15
844.031	876.69
844.211	899.36
844.391	864.29
844.571	896.84
844.751	879.6
844.93	883.66
845.11	841.23
845.29	887.35
845.47	903.81
845.649	862.35
845.829	875.92
846.009	862.35
846.188	869.72
846.368	847.24
846.547	870.1
846.727	870.68
846.907	843.75
847.086	860.42
847.266	885.02
847.445	882.89
847.625	861.19
847.804	844.92
847.984	873.4
848.163	805.78
848.343	859.64
848.522	857.9
848.701	865.26
848.881	822.25
849.06	847.63
849.239	870.68
849.419	871.85
849.598	823.99
849.777	791.05
849.957	788.54
850.136	735.45
850.315	748.62
850.494	763.74
850.674	770.9
850.853	838.91
851.032	786.6
851.211	828.83
851.39	814.11
851.569	781.17
851.748	775.17
851.927	797.25
852.107	780.79
852.286	741.65
852.465	762.57
852.644	827.48
852.823	772.84
853.002	780.59
853.181	800.93
853.359	781.56
853.538	741.65
853.717	838.33
853.896	721.11
854.075	686.04
854.254	711.23
854.433	662.21
854.611	710.45
854.79	660.66
854.969	693.99
855.148	730.99
855.327	674.61
855.505	700.19
855.684	669.77
855.863	712
856.041	660.27
856.22	730.22
856.399	686.43
856.577	753.85
856.756	767.03
856.934	854.99
857.113	830.97
857.291	759.28
857.47	708.13
857.648	739.13
857.827	761.02
858.005	772.45
858.184	711.42
858.362	833.1
858.541	741.65
858.719	750.37
858.898	714.52
859.076	716.85
859.254	824.57
859.433	712.2
859.611	723.05
859.789	697.28
859.967	767.61
860.146	802.48
860.324	702.9
860.502	736.42
860.68	693.21
860.859	695.15
861.037	710.65
861.215	721.5
861.393	747.07
861.571	708.32
861.749	720.92
861.927	706.77
862.105	719.37
862.283	720.34
862.461	683.72
862.639	666.67
862.817	692.82
862.995	708.32
863.173	682.56
863.351	698.64
863.529	671.9
863.707	770.52
863.885	731.96
864.063	667.64
864.241	662.41
864.418	736.03
864.596	677.71
864.774	648.26
864.952	681.39
865.129	710.65
865.307	672.67
865.485	641.29
865.663	698.44
865.84	650.97
866.018	675.19
866.196	546.93
866.373	588.78
866.551	580.84
866.728	520.39
866.906	601.57
867.084	573.48
867.261	654.46
867.439	638.19
867.616	672.29
867.794	626.56
867.971	654.85
868.149	628.5
868.326	694.96
868.503	669.96
868.681	615.52
868.858	637.8
869.035	659.11
869.213	678.49
869.39	616.68
869.567	677.91
869.745	626.17
869.922	615.52
870.099	641.67
870.276	672.09
870.454	640.32
870.631	660.86
870.808	629.66
870.985	668.02
871.162	719.17
871.339	633.34
871.517	619.97
871.694	609.51
871.871	616.49
872.048	647.1
872.225	593.43
872.402	626.56
872.579	608.93
872.756	645.36
872.933	589.36
873.11	622.88
873.287	648.07
873.463	604.67
873.64	590.91
873.817	629.66
873.994	570.96
874.171	592.27
874.348	631.6
874.524	543.44
874.701	645.74
874.878	557.78
875.055	628.69
875.231	611.64
875.408	613.39
875.585	555.65
875.762	606.22
875.938	556.81
876.115	581.81
876.291	579.29
876.468	589.94
876.645	537.05
876.821	588.2
876.998	542.09
877.174	603.31
877.351	569.79
877.527	560.11
877.704	596.14
877.88	581.61
878.057	577.54
878.233	585.88
878.409	564.18
878.586	564.56
878.762	542.67
878.938	552.55
879.115	503.73
879.291	577.93
879.467	493.07
879.644	526.2
879.82	561.08
879.996	550.81
880.172	507.8
880.349	544.61
880.525	576.38
880.701	522.33
880.877	525.23
881.053	556.04
881.229	536.47
881.405	542.28
881.581	507.02
881.757	537.63
881.933	533.18
882.109	565.92
882.285	525.81
882.461	489.97
882.637	522.52
882.813	502.56
882.989	513.03
883.165	569.6
883.341	501.21
883.517	540.15
883.693	530.27
883.869	539.38
884.044	499.66
884.22	589.94
884.396	584.71
884.572	559.72
884.747	568.44
884.923	554.68
885.099	534.14
885.275	576.19
885.45	505.86
885.626	503.34
885.801	532.59
885.977	524.65
886.153	476.02
886.328	532.59
886.504	518.45
886.679	559.91
886.855	524.46
887.03	536.86
887.206	545.38
887.381	539.38
887.557	514
887.732	536.47
887.908	565.92
888.083	548.68
888.258	502.56
888.434	535.11
888.609	539.18
888.784	577.93
888.96	530.85
889.135	497.53
889.31	478.54
889.485	507.8
889.661	489.2
889.836	563.59
890.011	568.24
890.186	504.11
890.361	501.01
890.537	507.41
890.712	532.4
890.887	523.3
891.062	508.57
891.237	572.51
891.412	511.09
891.587	543.25
891.762	542.28
891.937	561.66
892.112	494.62
892.287	534.92
892.462	491.52
892.637	477.96
892.812	471.18
892.987	489.2
893.161	450.45
893.336	478.35
893.511	472.15
893.686	481.06
893.861	483.58
894.035	484.16
894.21	476.8
894.385	419.64
894.56	459.55
894.734	428.75
894.909	427.78
895.084	461.68
895.258	436.11
895.433	417.51
895.608	414.99
895.782	368.68
895.957	409.76
896.131	411.5
896.306	367.33
896.48	353.77
896.655	375.66
896.829	336.72
897.004	349.89
897.178	318.31
897.353	335.17
897.527	372.75
897.701	336.52
897.876	282.08
898.05	382.44
898.224	330.13
898.399	378.76
898.573	352.6
898.747	256.89
898.921	346.6
899.096	234.03
899.27	293.51
899.444	266.77
899.618	279.75
899.792	267.36
899.967	279.37
900.141	330.71
900.315	269.1
900.489	303.2
900.663	318.89
900.837	294.48
901.011	271.23
901.185	355.32
901.359	282.47
901.533	327.42
901.707	319.67
901.881	277.04
902.055	247.79
902.229	278.4
902.403	340.2
902.576	281.3
902.75	308.43
902.924	406.85
903.098	307.07
903.272	345.63
903.446	394.84
903.619	386.9
903.793	394.65
903.967	358.22
904.14	403.95
904.314	429.52
904.488	379.92
904.661	388.06
904.835	379.92
905.009	438.63
905.182	423.52
905.356	422.74
905.529	401.04
905.703	365
905.876	372.17
906.05	341.56
906.223	347.18
906.397	271.42
906.57	302.81
906.744	285.95
906.917	303.97
907.09	305.72
907.264	295.64
907.437	275.49
907.61	274.91
907.784	295.06
907.957	310.37
908.13	299.13
908.304	258.06
908.477	278.2
908.65	268.13
908.823	254.76
908.996	334.59
909.17	236.94
909.343	257.67
909.516	289.83
909.689	258.64
909.862	221.82
910.035	275.1
910.208	222.79
910.381	251.08
910.554	324.32
910.727	247.59
910.9	264.45
911.073	247.98
911.246	293.9
911.419	301.65
911.592	293.9
911.765	249.92
911.938	231.9
912.11	281.5
912.283	261.54
912.456	292.54
912.629	260.57
912.802	259.02
912.974	243.14
913.147	215.24
913.32	169.9
913.493	207.29
913.665	229.57
913.838	197.22
914.01	234.61
914.183	205.94
914.356	206.52
914.528	270.07
914.701	259.02
914.873	274.33
915.046	206.71
915.218	211.94
915.391	147.43
915.563	167.19
915.736	220.08
915.908	229.77
916.081	225.89
916.253	211.75
916.425	220.47
916.598	246.24
916.77	215.24
916.942	203.81
917.115	137.54
917.287	234.61
917.459	203.42
917.632	193.54
917.804	164.86
917.976	186.37
918.148	196.06
918.32	173.39
918.493	236.74
918.665	269.68
918.837	232.29
919.009	278.4
919.181	284.99
919.353	232.87
919.525	221.24
919.697	224.54
919.869	212.91
920.041	255.15
920.213	326.64
920.385	256.31
920.557	239.46
920.729	248.76
920.901	255.15
921.073	226.28
921.244	237.91
921.416	233.45
921.588	248.37
921.76	211.17
921.932	310.56
922.103	237.91
922.275	215.82
922.447	235.58
922.619	166.61
922.79	245.46
922.962	194.7
923.134	242.75
923.305	198.96
923.477	191.02
923.648	190.44
923.82	188.11
923.991	151.3
924.163	171.26
924.335	181.53
924.506	178.23
924.677	244.11
924.849	202.26
925.02	201.87
925.192	206.52
925.363	191.41
925.535	222.02
925.706	192.57
925.877	226.28
926.049	166.99
926.22	213.3
926.391	234.81
926.562	229.96
926.734	177.65
926.905	207.87
927.076	132.12
927.247	179.59
927.419	133.28
927.59	152.27
927.761	174.16
927.932	195.86
928.103	177.46
928.274	169.13
928.445	128.24
928.616	140.06
928.787	151.88
928.958	176.29
929.129	187.92
929.3	146.46
929.471	125.14
929.642	85.62
929.813	52.68
929.984	140.06
930.155	64.7
930.326	125.34
930.496	89.11
930.667	47.06
930.838	84.65
931.009	36.8
931.18	57.14
931.35	68.18
931.521	77.87
931.692	55.2
931.863	8.51
932.033	80.2
932.204	53.65
932.374	106.35
932.545	4.83
932.716	69.35
932.886	66.83
933.057	-1.95
933.227	25.17
933.398	87.56
933.568	21.3
933.739	-16.48
933.909	15.48
934.08	47.06
934.25	-18.42
934.421	2.12
934.591	32.15
934.761	-18.23
934.932	-8.54
935.102	40.09
935.272	-35.67
935.443	3.86
935.613	16.65
935.783	28.66
935.953	-15.13
936.123	135.8
936.294	-21.91
936.464	4.83
936.634	13.55
936.804	-1.37
936.974	-9.32
937.144	38.93
937.314	34.08
937.484	9.09
937.655	-24.04
937.825	54.43
937.995	-14.74
938.165	45.51
938.334	-13.38
938.504	20.33
938.674	-6.41
938.844	-0.6
939.014	56.17
939.184	48.81
939.354	95.11
939.524	58.11
939.694	32.53
939.863	1.73
940.033	73.41
940.203	71.09
940.373	57.53
940.542	77.48
940.712	42.03
940.882	70.31
941.051	81.16
941.221	61.01
941.391	62.18
941.56	21.88
941.73	34.28
941.899	116.43
942.069	8.51
942.238	63.34
942.408	49.58
942.577	51.91
942.747	23.43
942.916	-36.63
943.086	13.93
943.255	61.98
943.425	72.06
943.594	-3.12
943.763	-25.78
943.933	5.6
944.102	-29.08
944.271	10.64
944.441	50.75
944.61	-3.12
944.779	42.41
944.948	90.66
945.117	-6.99
945.287	18.58
945.456	-42.25
945.625	23.62
945.794	42.8
945.963	-15.9
946.132	41.25
946.301	13.16
946.47	77.48
946.639	-38.96
946.808	0.76
946.977	45.51
947.146	69.15
947.315	17.81
947.484	67.6
947.653	12.96
947.822	15.87
947.991	10.45
948.16	111.39
948.329	56.56
948.498	31.76
948.666	37.96
948.835	35.63
949.004	-1.37
949.173	1.53
949.341	40.67
949.51	59.46
949.679	82.91
949.847	61.4
950.016	95.89
950.185	86.01
950.353	-2.34
950.522	12
950.69	51.33
950.859	5.8
951.028	48.03
951.196	37.18
951.365	-3.89
951.533	26.33
951.701	50.55
951.87	79.03
952.038	-4.28
952.207	36.8
952.375	81.55
952.543	24.4
952.712	28.85
952.88	13.55
953.048	72.83
953.217	15.48
953.385	11.61
953.553	54.04
953.721	2.31
953.89	29.43
954.058	-13.77
954.226	17.61
954.394	45.13
954.562	-32.57
954.73	29.43
954.898	24.2
955.067	56.17
955.235	24.01
955.403	62.18
955.571	75.55
955.739	51.91
955.907	10.25
956.075	-2.53
956.243	6.96
956.41	45.13
956.578	-16.87
956.746	-23.65
956.914	36.21
957.082	55.4
957.25	25.36
957.418	3.47
957.585	33.7
957.753	42.22
957.921	-4.86
958.089	47.84
958.256	29.63
958.424	46.29
958.592	41.06
958.759	15.1
958.927	51.13
959.095	-15.52
959.262	20.91
959.43	42.22
959.597	-24.04
959.765	3.67
959.932	5.02
960.1	56.56
960.267	30.21
960.435	30.98
960.602	63.92
960.77	18
960.937	-8.73
961.104	36.21
961.272	0.37
961.439	18
961.606	40.09
961.774	74.96
961.941	12.58
962.108	51.91
962.275	39.7
962.443	86.2
962.61	30.01
962.777	87.95
962.944	76.32
963.111	38.35
963.278	39.12
963.446	31.56
963.613	49.58
963.78	58.11
963.947	66.44
964.114	21.3
964.281	112.36
964.448	55.2
964.615	15.29
964.782	35.44
964.949	47.45
965.116	43.77
965.282	88.33
965.449	24.59
965.616	31.76
965.783	59.46
965.95	53.46
966.117	3.08
966.283	43.58
966.45	41.64
966.617	71.48
966.784	52.49
966.95	64.31
967.117	72.64
967.284	11.22
967.45	15.1
967.617	65.86
967.784	45.32
967.95	99.18
968.117	38.73
968.283	94.34
968.45	129.99
968.616	75.16
968.783	85.81
968.949	59.46
969.116	65.08
969.282	58.88
969.449	57.53
969.615	50.16
969.781	-2.73
969.948	30.98
970.114	-8.35
970.28	95.89
970.447	31.37
970.613	87.75
970.779	10.83
970.945	60.63
971.112	46.87
971.278	45.13
971.444	41.45
971.61	89.5
971.776	48.81
971.942	58.69
972.108	88.53
972.275	26.72
972.441	56.56
972.607	127.86
972.773	27.88
972.939	55.2
973.105	27.5
973.271	9.09
973.437	46.1
973.602	36.99
973.768	90.66
973.934	30.4
974.1	67.8
974.266	-20.17
974.432	72.64
974.598	27.69
974.763	45.51
974.929	43.96
975.095	97.05
975.261	33.31
975.426	19.94
975.592	38.93
975.758	114.1
975.923	-10.09
976.089	24.2
976.255	68.76
976.42	55.78
976.586	59.08
976.751	38.73
976.917	139.29
977.082	66.05
977.248	7.15
977.413	-11.06
977.579	12.58
977.744	47.45
977.91	22.46
978.075	8.51
978.24	65.66
978.406	40.86
978.571	6.57
978.736	15.48
978.902	50.94
979.067	12
979.232	-11.25
979.397	39.31
979.563	71.09
979.728	-3.89
979.893	63.92
980.058	2.7
980.223	75.93
980.388	43.19
980.554	33.89
980.719	30.98
980.884	49
981.049	51.52
981.214	20.52
981.379	67.8
981.544	18
981.709	24.98
981.874	44.55
982.039	28.85
982.204	65.86
982.368	40.86
982.533	15.48
982.698	64.7
982.863	85.62
983.028	13.93
983.193	57.14
983.357	55.01
983.522	62.18
983.687	38.54
983.852	29.82
984.016	40.48
984.181	49.78
984.346	38.73
984.51	54.62
984.675	82.71
984.839	68.57
985.004	75.74
985.168	74.19
985.333	78.45
985.498	43.38
985.662	56.17
985.827	90.46
985.991	42.8
986.155	49
986.32	95.31
986.484	97.83
986.649	81.36
986.813	-0.6
986.977	23.62
987.142	47.06
987.306	32.92
987.47	20.91
987.634	37.57
987.799	57.33
987.963	40.67
988.127	56.36
988.291	110.42
988.455	28.66
988.62	9.09
988.784	29.82
988.948	47.84
989.112	38.54
989.276	55.59
989.44	36.41
989.604	8.7
989.768	30.4
989.932	105.96
990.096	4.63
990.26	5.6
990.424	-1.37
990.588	48.61
990.752	95.5
990.915	90.85
991.079	8.51
991.243	34.66
991.407	62.76
991.571	25.56
991.734	27.3
991.898	68.18
992.062	116.62
992.226	26.33
992.389	5.02
992.553	10.25
992.717	12
992.88	20.71
993.044	38.15
993.207	48.81
993.371	65.47
993.535	43.58
993.698	42.03
993.862	62.37
994.025	66.63
994.189	33.5
994.352	41.45
994.515	36.8
994.679	78.06
994.842	32.92
995.006	76.13
995.169	36.02
995.332	16.65
995.496	44.16
995.659	0.76
995.822	13.35
995.985	36.41
996.149	93.56
996.312	3.08
996.475	99.38
996.638	26.33
996.801	82.91
996.964	82.33
997.128	35.63
997.291	12.96
997.454	70.9
997.617	-30.82
997.78	98.41
997.943	-0.02
998.106	81.36
998.269	25.95
998.432	11.61
998.595	57.53
998.758	-16.1
998.92	44.16
999.083	-17.65
999.246	11.61
999.409	-13
999.572	-11.64
999.735	31.56
999.897	57.14
1000.06	14.9
1000.223	2.89
1000.386	55.01
1000.548	60.43
1000.711	43
1000.874	26.53
1001.036	-11.45
1001.199	74.96
1001.361	18.78
1001.524	22.07
1001.687	71.86
1001.849	17.81
1002.012	60.43
1002.174	61.4
1002.337	28.85
1002.499	35.25
1002.661	66.25
1002.824	11.41
1002.986	4.05
1003.149	38.93
1003.311	10.64
1003.473	72.06
1003.636	7.54
1003.798	37.96
1003.96	36.6
1004.123	35.05
1004.285	24.2
1004.447	37.38
1004.609	18.78
1004.771	85.04
1004.933	10.45
1005.096	7.93
1005.258	-27.53
1005.42	-1.37
1005.582	80.58
1005.744	24.4
1005.906	-8.35
1006.068	35.25
1006.23	-26.17
1006.392	-39.54
1006.554	25.36
1006.716	35.44
1006.878	58.5
1007.04	-11.06
1007.202	16.65
1007.363	25.36
1007.525	52.1
1007.687	30.6
1007.849	91.24
1008.011	-8.15
1008.172	-5.83
1008.334	-8.15
1008.496	36.99
1008.658	-41.09
1008.819	-5.63
1008.981	-0.6
1009.143	0.95
1009.304	3.08
1009.466	26.72
1009.627	63.15
1009.789	136.58
1009.95	26.91
1010.112	-13
1010.273	61.6
1010.435	6.96
1010.596	8.51
1010.758	-21.52
1010.919	26.91
1011.081	-12.8
1011.242	14.71
1011.403	63.92
1011.565	-13
1011.726	39.9
1011.887	-17.65
1012.049	11.41
1012.21	39.51
1012.371	70.7
1012.532	-34.12
1012.693	27.69
1012.855	19.55
1013.016	14.9
1013.177	45.13
1013.338	38.54
1013.499	59.08
1013.66	46.68
1013.821	71.86
1013.982	40.48
1014.143	35.44
1014.304	-10.67
1014.465	28.08
1014.626	28.66
1014.787	47.06
1014.948	80.39
1015.109	-45.93
1015.27	72.83
1015.431	19.16
1015.592	-24.82
1015.752	53.46
1015.913	29.43
1016.074	23.81
1016.235	19.55
1016.395	22.46
1016.556	18.78
1016.717	28.27
1016.877	69.73
1017.038	-19.78
1017.199	21.68
1017.359	29.82
1017.52	13.16
1017.681	-16.29
1017.841	19.75
1018.002	7.73
1018.162	1.34
1018.323	49.58
1018.483	18.58
1018.644	11.41
1018.804	-7.96
1018.964	-11.25
1019.125	-2.53
1019.285	-6.6
1019.446	-21.13
1019.606	-12.22
1019.766	-23.85
1019.926	41.06
1020.087	31.37
1020.247	-20.36
1020.407	41.45
1020.567	29.63
1020.728	-11.25
1020.888	-5.05
1021.048	-18.62
1021.208	-25.59
1021.368	-33.73
1021.528	34.86
1021.688	69.93
1021.848	30.6
1022.008	27.11
1022.168	-16.29
1022.328	31.18
1022.488	-1.95
1022.648	3.08
1022.808	9.48
1022.968	21.49
1023.128	-4.28
1023.288	5.6
1023.448	11.41
1023.608	34.28
1023.767	17.03
1023.927	-4.28
1024.087	-5.25
1024.247	-31.21
1024.406	5.02
1024.566	-9.9
1024.726	-37.6
1024.885	7.35
1025.045	26.33
1025.205	24.59
1025.364	-13.97
1025.524	-8.93
1025.683	4.05
1025.843	38.54
1026.003	-3.12
1026.162	49.58
1026.321	38.73
1026.481	16.06
1026.64	-3.5
1026.8	10.06
1026.959	3.08
1027.119	8.31
1027.278	-19.97
1027.437	-25.78
1027.597	-17.07
1027.756	-0.98
1027.915	22.85
1028.074	15.48
1028.234	-21.13
1028.393	22.85
1028.552	-4.08
1028.711	-52.91
1028.87	48.42
1029.03	-15.52
1029.189	0.37
1029.348	-52.91
1029.507	3.47
1029.666	-28.5
1029.825	-14.55
1029.984	-2.15
1030.143	33.31
1030.302	-11.64
1030.461	-47.87
1030.62	38.15
1030.779	29.24
1030.938	-28.11
1031.097	-43.61
1031.255	23.62
1031.414	68.76
1031.573	56.17
1031.732	-67.44
1031.891	-0.02
1032.049	38.93
1032.208	9.28
1032.367	-20.55
1032.525	5.6
1032.684	-8.73
1032.843	21.88
1033.001	-34.89
1033.16	136.96
1033.319	28.66
1033.477	28.85
1033.636	-16.87
1033.794	-50.58
1033.953	31.37
1034.111	5.22
1034.27	-16.48
1034.428	28.66
1034.587	2.31
1034.745	43.96
1034.903	-2.34
1035.062	13.74
1035.22	-34.12
1035.378	12.96
1035.537	-41.67
1035.695	32.15
1035.853	-1.57
1036.011	8.12
1036.17	21.1
1036.328	-34.7
1036.486	38.15
1036.644	-7.38
1036.802	-59.88
1036.96	-30.82
1037.119	-18.23
1037.277	-10.67
1037.435	-34.7
1037.593	-38.38
1037.751	-19.39
1037.909	38.73
1038.067	38.73
