Data from oakcork_FLMT105791__175__17-31-48-057.txt Node

Date: Mon Mar 20 17:31:48 GMT 2023
User: antho
Spectrometer: FLMT10579
Trigger mode: 0
Integration Time (sec): 1.000000E-1
Scans to average: 10
Electric dark correction enabled: true
Nonlinearity correction enabled: false
Boxcar width: 0
XAxis mode: Wavelengths
Number of Pixels in Spectrum: 3648
>>>>>Begin Spectral Data<<<<<
345.248	-160.25
345.464	-160.25
345.681	-160.25
345.898	-130.6
346.114	-121.3
346.331	-26.75
346.548	36.41
346.764	7.73
346.981	-20.94
347.197	-11.25
347.414	6.38
347.631	-27.33
347.847	38.73
348.064	-3.12
348.28	26.91
348.497	-14.55
348.713	-12.22
348.93	30.01
349.146	10.45
349.363	9.28
349.579	24.78
349.796	-0.21
350.012	-12.61
350.229	17.81
350.445	16.65
350.661	-10.09
350.878	12
351.094	11.61
351.311	35.05
351.527	17.61
351.743	-2.53
351.96	36.21
352.176	27.11
352.392	24.78
352.609	55.2
352.825	-4.28
353.041	13.74
353.257	-5.05
353.474	-8.15
353.69	2.5
353.906	18.2
354.122	-3.89
354.339	60.05
354.555	29.82
354.771	9.28
354.987	58.3
355.203	62.76
355.42	9.67
355.636	-9.51
355.852	-45.16
356.068	18.2
356.284	-18.23
356.5	49.58
356.716	23.81
356.932	18.97
357.148	39.12
357.364	-13.38
357.58	31.95
357.796	40.67
358.012	40.67
358.228	24.2
358.444	-30.05
358.66	59.85
358.876	35.44
359.092	-32.95
359.308	11.8
359.524	38.93
359.74	-6.22
359.956	-26.56
360.172	23.43
360.388	33.89
360.604	7.35
360.819	64.11
361.035	16.65
361.251	22.85
361.467	-18.23
361.683	41.64
361.898	31.95
362.114	49.39
362.33	14.71
362.546	36.21
362.762	30.6
362.977	7.15
363.193	-7.77
363.409	39.9
363.624	0.18
363.84	-10.09
364.056	22.65
364.271	23.04
364.487	10.25
364.703	-15.71
364.918	-28.5
365.134	6.18
365.35	12
365.565	118.36
365.781	29.43
365.996	17.61
366.212	82.91
366.427	17.03
366.643	9.28
366.858	18.2
367.074	-46.9
367.289	62.95
367.505	112.74
367.72	-27.53
367.936	-9.7
368.151	38.54
368.367	42.41
368.582	44.35
368.798	1.92
369.013	50.55
369.228	16.26
369.444	20.33
369.659	72.64
369.874	13.55
370.09	67.41
370.305	-10.67
370.52	2.5
370.736	46.87
370.951	14.71
371.166	64.89
371.381	67.02
371.597	34.66
371.812	-4.08
372.027	-0.02
372.242	-0.6
372.458	45.13
372.673	-1.95
372.888	15.1
373.103	42.22
373.318	94.53
373.533	36.8
373.749	24.59
373.964	-22.88
374.179	60.82
374.394	-28.5
374.609	49.39
374.824	-6.6
375.039	44.74
375.254	19.36
375.469	74.96
375.684	11.22
375.899	62.95
376.114	1.73
376.329	36.41
376.544	47.06
376.759	54.43
376.974	12.58
377.189	1.34
377.404	6.77
377.619	80.58
377.834	-41.87
378.049	-13.38
378.264	-15.71
378.478	13.55
378.693	-30.82
378.908	13.35
379.123	-6.8
379.338	43.77
379.553	32.34
379.767	20.33
379.982	61.6
380.197	53.85
380.412	27.11
380.626	25.95
380.841	96.28
381.056	40.09
381.271	68.76
381.485	-6.02
381.7	6.57
381.915	21.49
382.129	14.9
382.344	39.51
382.559	14.71
382.773	38.93
382.988	-34.12
383.202	12.19
383.417	-5.25
383.632	91.24
383.846	33.31
384.061	26.72
384.275	21.88
384.49	28.85
384.704	51.71
384.919	46.1
385.133	11.61
385.348	38.93
385.562	-19
385.777	42.22
385.991	18.2
386.206	9.86
386.42	-2.73
386.634	67.21
386.849	32.34
387.063	44.35
387.277	-8.93
387.492	19.94
387.706	-16.1
387.92	-25.2
388.135	50.94
388.349	39.51
388.563	7.73
388.778	44.16
388.992	49.39
389.206	37.96
389.42	100.34
389.635	10.83
389.849	60.43
390.063	79.61
390.277	36.99
390.491	92.79
390.706	34.86
390.92	59.66
391.134	37.76
391.348	56.95
391.562	-33.92
391.776	-8.93
391.99	17.42
392.205	65.28
392.419	-2.53
392.633	12.19
392.847	77.68
393.061	5.8
393.275	81.94
393.489	46.48
393.703	31.76
393.917	84.26
394.131	2.12
394.345	45.32
394.559	33.89
394.773	15.87
394.986	36.8
395.2	8.51
395.414	44.93
395.628	-8.93
395.842	22.26
396.056	9.86
396.27	-35.28
396.484	26.72
396.697	31.95
396.911	62.18
397.125	35.63
397.339	45.71
397.553	40.09
397.766	111.19
397.98	60.63
398.194	64.7
398.408	11.41
398.621	48.61
398.835	39.51
399.049	16.06
399.262	54.81
399.476	46.48
399.69	76.13
399.903	98.02
400.117	28.46
400.331	66.05
400.544	9.28
400.758	80.58
400.971	33.89
401.185	79.42
401.398	12.58
401.612	65.08
401.826	45.13
402.039	50.75
402.253	8.7
402.466	54.81
402.68	36.02
402.893	45.71
403.106	85.23
403.32	17.23
403.533	50.16
403.747	68.76
403.96	15.29
404.174	48.61
404.387	0.57
404.6	48.81
404.814	64.7
405.027	44.74
405.24	32.34
405.454	12.77
405.667	65.66
405.88	-21.13
406.094	37.57
406.307	58.88
406.52	54.23
406.733	-7.38
406.947	9.67
407.16	84.65
407.373	74.19
407.586	6.18
407.799	13.55
408.012	90.27
408.226	51.13
408.439	81.75
408.652	-21.13
408.865	57.14
409.078	62.56
409.291	49.2
409.504	21.3
409.717	53.26
409.93	41.06
410.143	32.73
410.357	-11.83
410.57	-1.76
410.783	68.76
410.996	58.11
411.209	32.15
411.421	75.74
411.634	30.01
411.847	13.55
412.06	34.08
412.273	35.05
412.486	45.71
412.699	115.46
412.912	23.81
413.125	68.38
413.338	77.48
413.55	52.3
413.763	41.83
413.976	53.46
414.189	3.86
414.402	38.93
414.615	82.71
414.827	39.9
415.04	72.25
415.253	56.17
415.466	70.7
415.678	96.08
415.891	18.97
416.104	36.21
416.316	38.73
416.529	28.85
416.742	61.98
416.954	74.58
417.167	47.06
417.38	46.29
417.592	87.75
417.805	6.96
418.017	-15.32
418.23	88.33
418.442	18.97
418.655	32.34
418.868	45.9
419.08	76.71
419.293	69.73
419.505	39.31
419.718	63.34
419.93	113.13
420.142	25.17
420.355	99.96
420.567	76.13
420.78	48.61
420.992	54.43
421.205	87.56
421.417	15.87
421.629	7.73
421.842	21.1
422.054	16.26
422.266	50.94
422.479	77.87
422.691	45.51
422.903	72.06
423.115	33.11
423.328	74.58
423.54	35.25
423.752	81.16
423.964	39.12
424.177	84.26
424.389	41.83
424.601	143.16
424.813	49.97
425.025	82.13
425.238	79.03
425.45	30.21
425.662	37.96
425.874	358.8
426.086	56.56
426.298	61.98
426.51	70.9
426.722	63.73
426.934	34.08
427.146	84.85
427.358	5.41
427.57	101.12
427.782	77.48
427.994	51.71
428.206	38.54
428.418	17.23
428.63	89.88
428.842	80.2
429.054	36.8
429.266	91.82
429.478	43.38
429.69	49.39
429.902	2.31
430.114	82.33
430.325	68.76
430.537	51.33
430.749	56.75
430.961	0.18
431.173	61.4
431.384	68.18
431.596	-12.22
431.808	39.7
432.02	59.27
432.231	73.03
432.443	72.25
432.655	67.02
432.867	25.17
433.078	79.81
433.29	106.54
433.502	98.79
433.713	99.96
433.925	42.8
434.136	79.23
434.348	39.12
434.56	7.93
434.771	166.61
434.983	0.18
435.194	27.88
435.406	41.25
435.617	97.83
435.829	102.86
436.04	78.65
436.252	85.43
436.463	103.64
436.675	81.55
436.886	62.18
437.098	76.9
437.309	90.08
437.521	42.61
437.732	88.72
437.943	55.2
438.155	68.38
438.366	6.38
438.578	130.57
438.789	79.42
439	103.64
439.211	65.66
439.423	97.63
439.634	75.93
439.845	90.66
440.057	58.5
440.268	92.79
440.479	47.65
440.69	75.16
440.902	90.08
441.113	58.69
441.324	60.43
441.535	82.71
441.746	126.11
441.957	43.58
442.168	63.53
442.38	77.1
442.591	121.08
442.802	36.41
443.013	39.51
443.224	84.46
443.435	66.63
443.646	86.59
443.857	79.42
444.068	59.85
444.279	35.63
444.49	153.43
444.701	84.26
444.912	179.78
445.123	97.83
445.334	110.23
445.545	119.53
445.756	73.61
445.967	50.55
446.178	83.49
446.388	99.76
446.599	134.44
446.81	108.48
447.021	94.92
447.232	129.99
447.443	117.59
447.653	52.88
447.864	109.64
448.075	77.68
448.286	108.09
448.496	104.8
448.707	122.04
448.918	81.75
449.129	178.43
449.339	61.79
449.55	109.45
449.761	100.34
449.971	126.89
450.182	65.47
450.393	97.63
450.603	88.14
450.814	133.09
451.024	114.68
451.235	144.91
451.446	173.97
451.656	165.44
451.867	76.71
452.077	121.27
452.288	170.09
452.498	138.71
452.709	95.89
452.919	120.11
453.13	80.97
453.34	134.06
453.55	85.81
453.761	136.96
453.971	127.08
454.182	134.83
454.392	135.61
454.602	171.45
454.813	98.41
455.023	148.59
455.233	71.09
455.444	118.56
455.654	54.43
455.864	96.47
456.075	103.83
456.285	102.86
456.495	100.93
456.705	116.04
456.916	163.31
457.126	154.01
457.336	94.15
457.546	50.16
457.756	90.08
457.967	166.22
458.177	109.64
458.387	123.98
458.597	103.64
458.807	90.27
459.017	111.58
459.227	126.31
459.437	96.66
459.647	133.67
459.857	139.68
460.068	82.71
460.278	151.69
460.488	133.67
460.698	194.31
460.908	123.01
461.117	73.22
461.327	64.7
461.537	119.91
461.747	92.79
461.957	122.43
462.167	232.29
462.377	147.81
462.587	134.25
462.797	155.76
463.007	138.71
463.216	149.94
463.426	178.81
463.636	144.71
463.846	97.24
464.056	129.02
464.265	180.75
464.475	94.92
464.685	154.79
464.895	167.77
465.104	135.22
465.314	172.23
465.524	116.04
465.733	115.26
465.943	195.67
466.153	197.41
466.362	153.43
466.572	148.59
466.782	110.61
466.991	142.78
467.201	189.08
467.41	81.75
467.62	144.13
467.829	128.24
468.039	164.28
468.249	141.03
468.458	145.1
468.668	173.97
468.877	139.29
469.086	171.84
469.296	208.84
469.505	117.01
469.715	247.4
469.924	155.18
470.134	186.76
470.343	200.71
470.552	124.37
470.762	155.56
470.971	90.66
471.18	179.39
471.39	159.05
471.599	135.22
471.808	181.72
472.018	130.57
472.227	194.51
472.436	205.55
472.645	162.54
472.855	157.11
473.064	180.56
473.273	145.1
473.482	197.61
473.691	202.06
473.901	217.95
474.11	180.94
474.319	229.57
474.528	174.74
474.737	210.97
474.946	193.73
475.155	164.28
475.364	201.09
475.573	171.06
475.783	178.81
475.992	219.5
476.201	235.77
476.41	198.96
476.619	153.43
476.828	196.25
477.037	167.38
477.245	169.71
477.454	240.62
477.663	194.51
477.872	157.11
478.081	267.36
478.29	173.97
478.499	261.35
478.708	203.22
478.917	274.14
479.125	190.63
479.334	216.98
479.543	197.22
479.752	227.25
479.961	208.84
480.169	241.78
480.378	192.18
480.587	323.54
480.796	226.47
481.004	229.96
481.213	247.98
481.422	229.96
481.63	218.14
481.839	257.09
482.048	287.12
482.256	257.09
482.465	253.41
482.674	299.71
482.882	245.46
483.091	319.09
483.299	242.56
483.508	284.02
483.716	267.74
483.925	246.82
484.134	240.62
484.342	254.96
484.551	267.55
484.759	290.8
484.967	267.74
485.176	310.17
485.384	287.12
485.593	313.47
485.801	271.04
486.01	282.66
486.218	271.62
486.426	233.64
486.635	228.61
486.843	257.67
487.051	237.91
487.26	259.61
487.468	265.22
487.676	296.42
487.885	237.91
488.093	282.08
488.301	283.24
488.509	292.35
488.717	311.72
488.926	270.65
489.134	247.98
489.342	272
489.55	257.47
489.758	276.07
489.967	262.32
490.175	373.33
490.383	250.89
490.591	318.12
490.799	274.14
491.007	309.59
491.215	321.6
491.423	294.29
491.631	296.61
491.839	310.56
492.047	328.97
492.255	295.45
492.463	290.02
492.671	298.35
492.879	350.47
493.087	299.13
493.295	336.33
493.503	341.37
493.711	328.97
493.919	354.93
494.127	375.66
494.334	376.63
494.542	264.45
494.75	320.64
494.958	322.57
495.166	350.09
495.374	341.56
495.581	352.22
495.789	357.45
495.997	402.01
496.205	350.67
496.412	345.63
496.62	369.27
496.828	369.07
497.035	331.1
497.243	375.27
497.451	371.78
497.658	375.47
497.866	361.71
498.074	426.23
498.281	309.01
498.489	441.15
498.696	377.4
498.904	342.72
499.112	376.24
499.319	436.11
499.527	365.39
499.734	395.03
499.942	325.67
500.149	329.35
500.357	367.52
500.564	328
500.771	381.47
500.979	348.34
501.186	346.4
501.394	361.9
501.601	339.82
501.808	403.37
502.016	356.29
502.223	378.95
502.43	371.78
502.638	373.53
502.845	340.98
503.052	436.5
503.26	369.85
503.467	470.21
503.674	366.55
503.881	401.82
504.089	443.67
504.296	422.74
504.503	363.65
504.71	364.42
504.917	356.29
505.125	405.5
505.332	379.34
505.539	419.25
505.746	454.13
505.953	431.27
506.16	390.38
506.367	428.36
506.574	484.35
506.781	488.03
506.988	394.84
507.195	440.18
507.402	400.85
507.609	441.53
507.816	412.28
508.023	413.05
508.23	400.65
508.437	385.93
508.644	457.23
508.851	477.96
509.058	464.98
509.265	427
509.472	467.3
509.679	524.46
509.885	432.04
510.092	451.8
510.299	448.31
510.506	456.26
510.713	464.59
510.92	465.36
511.126	478.73
511.333	526.4
511.54	474.28
511.746	524.46
511.953	490.75
512.16	520
512.367	464.01
512.573	494.43
512.78	473.89
512.987	476.8
513.193	493.07
513.4	431.65
513.606	454.32
513.813	475.63
514.02	497.53
514.226	550.23
514.433	519.81
514.639	444.63
514.846	468.46
515.052	500.63
515.259	472.15
515.465	514
515.672	486.87
515.878	604.86
516.085	503.53
516.291	554.68
516.497	474.08
516.704	507.8
516.91	466.72
517.117	449.09
517.323	442.31
517.529	479.9
517.736	469.63
517.942	489.58
518.148	473.7
518.354	539.18
518.561	461.68
518.767	511.09
518.973	534.53
519.179	529.3
519.386	498.5
519.592	495.98
519.798	483.77
520.004	573.48
520.21	513.03
520.417	580.84
520.623	601.57
520.829	582.58
521.035	585.49
521.241	588.01
521.447	597.69
521.653	670.74
521.859	588.78
522.065	612.42
522.271	681.39
522.477	627.14
522.683	655.43
522.889	627.72
523.095	627.53
523.301	647.87
523.507	603.89
523.713	642.84
523.919	598.66
524.125	650.97
524.331	616.1
524.537	704.45
524.742	660.86
524.948	708.71
525.154	669.96
525.36	785.05
525.566	684.88
525.772	736.42
525.977	665.51
526.183	719.75
526.389	735.64
526.595	675.58
526.8	679.65
527.006	636.06
527.212	639.93
527.417	639.74
527.623	623.27
527.829	690.89
528.034	693.99
528.24	691.66
528.446	662.02
528.651	726.15
528.857	699.22
529.062	792.6
529.268	740.87
529.473	729.05
529.679	685.27
529.884	800.55
530.09	749.01
530.295	799.38
530.501	771.87
530.706	777.88
530.912	730.6
531.117	780.59
531.323	761.41
531.528	805.78
531.733	777.88
531.939	746.1
532.144	800.74
532.35	774.2
532.555	837.17
532.76	805.58
532.966	819.15
533.171	802.29
533.376	762.19
533.581	741.84
533.787	774
533.992	815.08
534.197	808.49
534.402	762.38
534.607	819.92
534.813	872.23
535.018	758.89
535.223	813.72
535.428	797.83
535.633	831.55
535.838	821.86
536.043	851.12
536.249	880.18
536.454	852.08
536.659	839.1
536.864	842.78
537.069	808.49
537.274	863.71
537.479	830.58
537.684	855.38
537.889	801.9
538.094	912.53
538.299	856.15
538.504	879.21
538.708	868.94
538.913	880.18
539.118	864.1
539.323	864.87
539.528	819.34
539.733	864.68
539.938	862.74
540.142	899.36
540.347	848.79
540.552	855.57
540.757	844.33
540.962	873.2
541.166	818.18
541.371	813.33
541.576	873.78
541.781	759.09
541.985	848.21
542.19	899.94
542.395	909.05
542.599	953.22
542.804	892.96
543.008	924.16
543.213	836.97
543.418	848.02
543.622	908.08
543.827	851.7
544.031	921.64
544.236	953.61
544.44	897.81
544.645	995.46
544.849	892.58
545.054	926.48
545.258	992.16
545.463	949.54
545.667	869.52
545.872	936.75
546.076	927.26
546.281	931.91
546.485	868.55
546.689	924.93
546.894	954.58
547.098	944.5
547.302	882.11
547.507	920.48
547.711	914.28
547.915	965.04
548.119	894.71
548.324	898
548.528	958.06
548.732	933.46
548.936	947.6
549.141	958.26
549.345	940.05
549.549	940.63
549.753	937.72
549.957	1010.76
550.161	995.65
550.366	940.24
550.57	919.9
550.774	925.9
550.978	936.36
551.182	957.68
551.386	909.05
551.59	923.96
551.794	904.4
551.998	980.15
552.202	930.16
552.406	908.85
552.61	942.76
552.814	961.16
553.018	991.78
553.222	952.25
553.426	929.39
553.63	1013.67
553.833	937.14
554.037	872.82
554.241	950.31
554.445	956.32
554.649	922.41
554.853	938.5
555.056	970.27
555.26	980.15
555.464	980.93
555.668	947.8
555.871	962.13
556.075	1006.11
556.279	930.75
556.483	922.61
556.686	930.16
556.89	934.62
557.094	964.85
557.297	876.69
557.501	977.83
557.704	871.07
557.908	968.53
558.112	895.1
558.315	1004.18
558.519	924.74
558.722	899.36
558.926	901.3
559.129	877.47
559.333	852.86
559.536	862.74
559.74	861.58
559.943	848.21
560.147	875.14
560.35	883.86
560.553	898
560.757	828.64
560.96	916.6
561.164	863.13
561.367	953.8
561.57	872.04
561.774	920.09
561.977	886.57
562.18	854.22
562.384	943.73
562.587	873.4
562.79	875.33
562.993	867.39
563.197	900.71
563.4	955.16
563.603	942.95
563.806	952.25
564.009	874.17
564.212	891.03
564.416	792.99
564.619	891.03
564.822	804.42
565.025	927.65
565.228	829.42
565.431	840.46
565.634	776.72
565.837	808.1
566.04	811.2
566.243	809.27
566.446	733.12
566.649	829.42
566.852	784.85
567.055	796.48
567.258	820.31
567.461	891.41
567.664	847.05
567.867	798.03
568.07	828.64
568.273	839.49
568.475	830.19
568.678	825.93
568.881	767.8
569.084	806.36
569.287	731.57
569.489	758.31
569.692	821.28
569.895	794.93
570.098	744.75
570.3	729.44
570.503	711.04
570.706	743
570.909	727.7
571.111	682.17
571.314	695.73
571.516	730.41
571.719	711.81
571.922	700.38
572.124	692.05
572.327	700.19
572.529	665.12
572.732	688.95
572.935	715.88
573.137	761.22
573.34	695.73
573.542	743.59
573.745	712.97
573.947	713.36
574.15	688.17
574.352	715.69
574.554	749.98
574.757	684.88
574.959	652.91
575.162	676.94
575.364	666.86
575.566	756.37
575.769	625.98
575.971	693.41
576.173	586.65
576.376	682.94
576.578	681.01
576.78	751.53
576.982	603.12
577.185	641.09
577.387	610.29
577.589	629.86
577.791	681.97
577.993	668.8
578.196	671.12
578.398	648.65
578.6	663.57
578.802	622.88
579.004	587.81
579.206	635.09
579.408	686.43
579.61	621.52
579.812	671.9
580.014	617.46
580.216	612.23
580.418	612.23
580.62	615.91
580.822	566.31
581.024	651.56
581.226	664.92
581.428	617.84
581.63	713.17
581.832	606.8
582.034	665.89
582.236	620.75
582.438	658.92
582.64	673.45
582.841	686.43
583.043	716.46
583.245	668.8
583.447	671.71
583.649	644.77
583.85	630.63
584.052	708.9
584.254	605.83
584.456	707.74
584.657	574.44
584.859	624.82
585.061	607.38
585.262	596.73
585.464	618.04
585.666	662.6
585.867	630.63
586.069	690.31
586.27	613.58
586.472	657.76
586.674	619.2
586.875	613.78
587.077	624.24
587.278	608.35
587.48	613
587.681	717.82
587.883	620.56
588.084	548.09
588.285	592.85
588.487	603.12
588.688	645.94
588.89	576.38
589.091	558.94
589.292	578.32
589.494	522.13
589.695	540.93
589.896	523.1
590.098	509.54
590.299	542.09
590.5	533.18
590.702	522.33
590.903	542.28
591.104	586.65
591.305	583.16
591.507	600.6
591.708	555.46
591.909	553.52
592.11	629.27
592.311	582.39
592.512	576.58
592.714	511.48
592.915	521.36
593.116	537.44
593.317	557.98
593.518	556.23
593.719	533.95
593.92	557.01
594.121	607.19
594.322	568.83
594.523	588.59
594.724	515.55
594.925	562.43
595.126	570.18
595.327	585.49
595.528	541.51
595.729	567.47
595.929	554.1
596.13	540.93
596.331	548.29
596.532	549.64
596.733	611.45
596.934	587.04
597.135	600.41
597.335	605.64
597.536	516.32
597.737	589.56
597.938	541.12
598.138	575.99
598.339	547.13
598.54	549.84
598.74	537.24
598.941	552.16
599.142	611.84
599.342	580.84
599.543	526.98
599.744	542.09
599.944	538.41
600.145	541.12
600.345	575.99
600.546	622.3
600.746	619.2
600.947	655.62
601.147	564.37
601.348	595.37
601.548	561.27
601.749	579.87
601.949	530.85
602.15	562.82
602.35	534.73
602.551	614.74
602.751	507.6
602.951	550.61
603.152	456.65
603.352	581.81
603.552	551.97
603.753	552.16
603.953	601.96
604.153	561.66
604.354	558.36
604.554	553.33
604.754	525.43
604.954	519.23
605.155	549.84
605.355	548.29
605.555	584.71
605.755	608.35
605.955	537.44
606.155	605.06
606.356	560.3
606.556	572.12
606.756	562.24
606.956	499.85
607.156	588.59
607.356	507.02
607.556	555.07
607.756	514.96
607.956	577.35
608.156	550.61
608.356	498.11
608.556	595.37
608.756	535.69
608.956	515.35
609.156	526.59
609.356	505.86
609.556	482.61
609.755	544.99
609.955	490.75
610.155	553.91
610.355	544.61
610.555	530.85
610.755	527.56
610.954	475.83
611.154	515.74
611.354	550.42
611.554	489.39
611.753	484.74
611.953	459.55
612.153	540.34
612.352	520.39
612.552	496.36
612.752	428.17
612.951	534.34
613.151	523.88
613.351	469.24
613.55	505.66
613.75	505.47
613.949	482.41
614.149	500.63
614.348	496.95
614.548	457.81
614.747	455.1
614.947	488.61
615.146	438.43
615.346	538.21
615.545	503.15
615.745	501.21
615.944	517.87
616.144	522.13
616.343	501.79
616.542	444.83
616.742	479.12
616.941	494.23
617.14	414.99
617.34	482.61
617.539	482.61
617.738	447.35
617.938	536.86
618.137	489
618.336	454.32
618.535	500.43
618.734	473.7
618.934	490.55
619.133	475.83
619.332	472.73
619.531	451.22
619.73	441.73
619.929	516.51
620.128	461.3
620.328	523.88
620.527	466.72
620.726	461.88
620.925	496.36
621.124	433.4
621.323	496.75
621.522	421.77
621.721	444.25
621.92	414.8
622.119	453.74
622.318	439.21
622.517	458.39
622.715	462.46
622.914	413.63
623.113	448.31
623.312	408.79
623.511	461.88
623.71	423.52
623.909	451.03
624.107	495.01
624.306	408.6
624.505	427.2
624.704	415.96
624.902	422.74
625.101	463.43
625.3	440.76
625.499	414.8
625.697	448.51
625.896	383.22
626.095	420.61
626.293	380.5
626.492	406.47
626.69	429.91
626.889	419.64
627.088	444.83
627.286	378.76
627.485	365.2
627.683	383.6
627.882	416.15
628.08	359
628.279	395.42
628.477	453.35
628.676	375.08
628.874	444.05
629.073	380.7
629.271	373.92
629.469	407.63
629.668	400.85
629.866	354.15
630.065	368.49
630.263	418.48
630.461	395.42
630.66	391.74
630.858	431.46
631.056	440.37
631.254	455.48
631.453	364.81
631.651	432.62
631.849	410.73
632.047	421
632.245	385.15
632.444	425.65
632.642	397.55
632.84	432.23
633.038	417.32
633.236	373.14
633.434	380.89
633.632	350.47
633.83	369.07
634.028	427.58
634.227	365.58
634.425	432.62
634.623	377.02
634.821	400.27
635.019	387.67
635.216	404.14
635.414	413.63
635.612	406.47
635.81	383.02
636.008	454.32
636.206	360.74
636.404	427.58
636.602	347.57
636.8	401.82
636.997	422.74
637.195	416.15
637.393	407.24
637.591	474.86
637.789	404.14
637.986	405.69
638.184	404.53
638.382	428.17
638.58	433.78
638.777	455.48
638.975	404.14
639.173	392.13
639.37	410.53
639.568	399.3
639.765	423.13
639.963	411.5
640.161	445.6
640.358	452
640.556	364.81
640.753	387.28
640.951	342.14
641.148	432.23
641.346	371.59
641.543	403.56
641.741	404.72
641.938	360.74
642.136	376.05
642.333	405.88
642.531	394.84
642.728	429.52
642.925	373.53
643.123	399.1
643.32	398.91
643.517	382.44
643.715	417.9
643.912	384.38
644.109	380.7
644.306	398.72
644.504	315.4
644.701	396.39
644.898	400.65
645.095	340.98
645.293	396
645.49	412.08
645.687	388.25
645.884	411.89
646.081	307.85
646.278	345.82
646.475	358.61
646.672	331.49
646.87	388.83
647.067	352.8
647.264	378.95
647.461	327.22
647.658	312.11
647.855	376.43
648.052	342.53
648.249	277.04
648.446	359.19
648.642	310.75
648.839	335.75
649.036	315.4
649.233	291.96
649.43	316.37
649.627	290.8
649.824	323.15
650.021	315.6
650.217	327.61
650.414	296.61
650.611	373.53
650.808	341.75
651.004	342.34
651.201	360.93
651.398	417.9
651.595	359.97
651.791	321.02
651.988	359.38
652.185	312.69
652.381	321.6
652.578	298.35
652.775	345.24
652.971	324.51
653.168	301.84
653.364	336.14
653.561	245.66
653.757	322.96
653.954	300.29
654.15	323.93
654.347	375.66
654.543	319.86
654.74	292.15
654.936	291.38
655.133	332.84
655.329	317.54
655.525	328.19
655.722	339.43
655.918	316.57
656.115	346.99
656.311	255.92
656.507	266
656.704	215.04
656.9	258.44
657.096	230.35
657.292	259.22
657.489	306.69
657.685	303.39
657.881	248.76
658.077	273.55
658.273	281.69
658.47	340.79
658.666	274.14
658.862	320.44
659.058	263.29
659.254	336.33
659.45	268.13
659.646	286.34
659.842	283.05
660.038	328
660.234	258.83
660.43	308.82
660.626	360.35
660.822	302.62
661.018	320.44
661.214	270.07
661.41	252.44
661.606	325.67
661.802	326.25
661.998	291.77
662.194	262.9
662.39	304.55
662.586	307.07
662.781	317.73
662.977	327.42
663.173	316.76
663.369	302.42
663.564	328.97
663.76	306.69
663.956	308.82
664.152	327.8
664.347	253.41
664.543	320.64
664.739	275.1
664.934	242.56
665.13	253.99
665.326	334.2
665.521	313.27
665.717	242.94
665.912	260.38
666.108	224.92
666.304	237.13
666.499	256.7
666.695	199.35
666.89	271.62
667.086	312.69
667.281	281.89
667.477	360.93
667.672	301.45
667.867	298.16
668.063	277.62
668.258	273.55
668.454	257.09
668.649	343.3
668.844	264.26
669.04	305.14
669.235	261.74
669.43	227.64
669.626	223.18
669.821	275.49
670.016	216.98
670.211	278.98
670.407	248.17
670.602	254.76
670.797	267.36
670.992	328
671.187	235.77
671.382	281.69
671.578	205.16
671.773	290.22
671.968	221.05
672.163	287.7
672.358	253.6
672.553	238.49
672.748	241.59
672.943	310.75
673.138	274.14
673.333	294.29
673.528	222.02
673.723	286.34
673.918	241.78
674.113	213.88
674.308	323.15
674.503	262.51
674.698	291.77
674.892	282.47
675.087	274.91
675.282	276.46
675.477	243.14
675.672	287.7
675.867	245.46
676.061	229.38
676.256	210.78
676.451	248.56
676.646	259.99
676.84	217.56
677.035	197.02
677.23	218.53
677.424	276.85
677.619	274.52
677.814	299.71
678.008	284.79
678.203	204.19
678.397	223.76
678.592	285.37
678.787	316.18
678.981	229.19
679.176	264.84
679.37	239.65
679.565	241.01
679.759	240.62
679.954	274.91
680.148	319.86
680.342	294.87
680.537	282.47
680.731	233.06
680.926	239.65
681.12	281.3
681.314	250.5
681.509	245.46
681.703	237.71
681.897	251.27
682.092	234.81
682.286	232.09
682.48	318.89
682.674	280.34
682.869	251.86
683.063	257.47
683.257	298.94
683.451	249.72
683.645	254.18
683.839	272
684.034	249.53
684.228	300.1
684.422	206.13
684.616	209.42
684.81	271.62
685.004	235.77
685.198	266.58
685.392	280.34
685.586	227.64
685.78	290.02
685.974	275.88
686.168	306.69
686.362	325.48
686.556	228.22
686.75	210.01
686.944	254.96
687.138	236.94
687.331	188.31
687.525	223.37
687.719	171.64
687.913	182.11
688.107	217.76
688.301	205.36
688.494	222.02
688.688	193.54
688.882	170.48
689.076	147.62
689.269	218.92
689.463	283.24
689.657	206.13
689.85	208.65
690.044	211.17
690.238	209.62
690.431	198.57
690.625	189.08
690.818	235
691.012	223.96
691.205	243.14
691.399	201.87
691.593	232.29
691.786	309.59
691.98	263.09
692.173	291.57
692.366	267.36
692.56	263.29
692.753	327.61
692.947	222.02
693.14	293.9
693.333	280.34
693.527	243.33
693.72	283.44
693.914	273.75
694.107	292.93
694.3	299.71
694.493	272.2
694.687	333.81
694.88	266
695.073	333.62
695.266	336.33
695.46	302.23
695.653	343.69
695.846	348.34
696.039	247.21
696.232	304.75
696.425	355.9
696.618	348.15
696.812	343.69
697.005	398.13
697.198	443.08
697.391	370.62
697.584	388.83
697.777	441.53
697.97	427.58
698.163	413.63
698.356	391.55
698.549	508.57
698.742	422.55
698.935	412.28
699.127	423.32
699.32	420.8
699.513	432.43
699.706	435.14
699.899	454.32
700.092	428.75
700.285	450.83
700.477	428.17
700.67	469.24
700.863	468.85
701.056	551.78
701.248	521.75
701.441	545.38
701.634	508.38
701.826	571.73
702.019	483
702.212	549.26
702.404	517.1
702.597	496.56
702.79	529.5
702.982	558.17
703.175	587.43
703.367	570.57
703.56	599.05
703.752	631.02
703.945	606.03
704.137	623.07
704.33	633.54
704.522	651.75
704.715	681.59
704.907	665.31
705.1	706.77
705.292	682.17
705.484	668.8
705.677	702.51
705.869	711.62
706.061	722.85
706.254	732.54
706.446	716.46
706.638	717.82
706.831	785.24
707.023	739.13
707.215	824.77
707.407	812.95
707.599	805
707.792	821.47
707.984	825.73
708.176	820.7
708.368	795.7
708.56	862.16
708.752	835.62
708.944	834.45
709.136	902.65
709.329	854.99
709.521	993.91
709.713	944.11
709.905	933.26
710.097	992.55
710.289	919.12
710.481	982.67
710.672	974.53
710.864	984.41
711.056	1018.51
711.248	1041.96
711.44	977.44
711.632	1001.27
711.824	1045.64
712.016	1091.56
712.207	1077.8
712.399	1096.59
712.591	1150.07
712.783	1111.12
712.975	1134.57
713.166	1107.25
713.358	1083.42
713.55	1187.07
713.741	1148.52
713.933	1168.09
714.125	1162.27
714.316	1169.83
714.508	1215.17
714.7	1221.75
714.891	1197.34
715.083	1273.29
715.274	1214
715.466	1257.98
715.657	1235.12
715.849	1214
716.04	1249.65
716.232	1203.54
716.423	1253.92
716.615	1186.1
716.806	1201.8
716.998	1184.36
717.189	1121.97
717.381	1087.29
717.572	1076.83
717.763	1126.04
717.955	1081.09
718.146	1064.04
718.337	1013.86
718.528	1025.49
718.72	966.4
718.911	1028.01
719.102	985.58
719.293	1057.26
719.485	1055.33
719.676	1029.56
719.867	999.72
720.058	1006.5
720.249	1007.47
720.44	1033.82
720.632	1055.71
720.823	1115
721.014	1225.63
721.205	1218.65
721.396	1253.53
721.587	1350.01
721.778	1378.3
721.969	1403.88
722.16	1397.1
722.351	1430.03
722.542	1511.99
722.733	1559.65
722.924	1450.57
723.115	1525.94
723.305	1546.28
723.496	1529.42
723.687	1436.04
723.878	1460.45
724.069	1419.38
724.26	1458.32
724.45	1387.8
724.641	1404.46
724.832	1431.58
725.023	1458.9
725.213	1447.08
725.404	1448.83
725.595	1428.29
725.785	1416.08
725.976	1504.43
726.167	1483.89
726.357	1482.15
726.548	1627.85
726.739	1504.82
726.929	1567.01
727.12	1597.04
727.31	1626.1
727.501	1579.41
727.691	1610.41
727.882	1608.67
728.072	1646.84
728.263	1656.72
728.453	1701.86
728.644	1689.46
728.834	1683.65
729.024	1676.48
729.215	1658.46
729.405	1689.27
729.596	1760.37
729.786	1776.45
729.976	1796.6
730.167	1783.62
730.357	1770.06
730.547	1780.91
730.737	1853.37
730.928	1852.4
731.118	1894.64
731.308	1840.58
731.498	1860.54
731.688	1926.8
731.879	1897.93
732.069	1982.21
732.259	1986.86
732.449	2017.28
732.639	2107.95
732.829	2108.15
733.019	2116.48
733.209	2230.4
733.399	2212.38
733.589	2294.34
733.779	2311.78
733.969	2268.76
734.159	2360.02
734.349	2381.72
734.539	2438.1
734.729	2452.44
734.919	2484.79
735.109	2503.97
735.299	2464.45
735.488	2477.43
735.678	2477.82
735.868	2490.6
736.058	2494.48
736.248	2502.62
736.437	2442.56
736.627	2492.93
736.817	2616.35
737.007	2549.5
737.196	2560.35
737.386	2575.08
737.576	2568.88
737.765	2625.84
737.955	2579.34
738.144	2730.66
738.334	2655.87
738.524	2645.8
738.713	2692.49
738.903	2686.87
739.092	2727.75
739.282	2697.53
739.471	2748.68
739.661	2712.64
739.85	2735.31
740.04	2775.61
740.229	2802.93
740.419	2885.46
740.608	2817.65
740.797	2856.79
740.987	2906.58
741.176	2862.99
741.365	2869.96
741.555	2801.18
741.744	2904.84
741.933	2852.14
742.123	2878.1
742.312	2961.6
742.501	2943.39
742.69	2981.37
742.88	2887.98
743.069	3087.73
743.258	2970.52
743.447	3045.11
743.636	3026.7
743.825	3038.13
744.014	3023.99
744.204	3052.67
744.393	3006.75
744.582	3085.99
744.771	3148.38
744.96	3057.9
745.149	3085.6
745.338	3055.96
745.527	3069.13
745.716	3041.23
745.905	3073.4
746.094	3114.08
746.283	3084.44
746.471	3099.55
746.66	3195.65
746.849	3142.56
747.038	3174.92
747.227	3113.89
747.416	3140.05
747.604	3109.24
747.793	3168.53
747.982	3123.58
748.171	3137.14
748.359	3197.78
748.548	3168.33
748.737	3191.19
748.926	3135.78
749.114	3080.76
749.303	3183.44
749.491	3127.06
749.68	3105.95
749.869	3179.76
750.057	3121.06
750.246	3133.85
750.434	3137.53
750.623	3113.11
750.811	3125.13
751	3147.02
751.188	3128.61
751.377	3131.13
751.565	3194.1
751.754	3114.28
751.942	3111.76
752.131	3218.13
752.319	3096.26
752.507	3103.04
752.696	3167.36
752.884	3210.38
753.072	3163.29
753.261	3181.51
753.449	3105.17
753.637	3128.23
753.825	3200.88
754.014	3137.91
754.202	3098.78
754.39	3182.67
754.578	3166.39
754.766	3109.63
754.955	3078.24
755.143	3191.39
755.331	3109.05
755.519	3106.53
755.707	3093.35
755.895	3133.85
756.083	3140.05
756.271	3074.95
756.459	3060.8
756.647	3173.95
756.835	3119.9
757.023	3084.44
757.211	3099.16
757.399	3104.59
757.587	3086.38
757.775	3061.97
757.963	3061.77
758.151	3020.5
758.339	3036.97
758.526	3005.58
758.714	3039.1
758.902	2939.32
759.09	2822.11
759.278	2652.38
759.465	2403.22
759.653	2112.8
759.841	1943.46
760.028	1619.9
760.216	1404.65
760.404	1322.89
760.591	1095.04
760.779	906.33
760.967	796.09
761.154	672.87
761.342	708.13
761.529	660.66
761.717	722.85
761.905	721.69
762.092	751.72
762.28	714.33
762.467	729.25
762.655	672.48
762.842	726.34
763.029	692.63
763.217	712.2
763.404	693.79
763.592	730.8
763.779	674.22
763.966	734.67
764.154	766.84
764.341	864.87
764.528	845.5
764.716	917.18
764.903	987.13
765.09	995.46
765.277	1041.57
765.465	1186.88
765.652	1224.85
765.839	1336.65
766.026	1431.97
766.213	1483.51
766.4	1600.14
766.588	1792.15
766.775	1777.81
766.962	1890.76
767.149	1926.22
767.336	2109.89
767.523	2051.57
767.71	2185.07
767.897	2267.41
768.084	2348.98
768.271	2365.44
768.458	2468.52
768.645	2471.23
768.832	2510.37
769.019	2501.26
769.206	2597.94
769.392	2625.07
769.579	2727.94
769.766	2654.9
769.953	2632.62
770.14	2727.17
770.327	2684.93
770.513	2738.6
770.7	2810.87
770.887	2697.72
771.073	2766.11
771.26	2797.11
771.447	2728.53
771.634	2715.74
771.82	2815.32
772.007	2710.51
772.193	2790.72
772.38	2799.24
772.567	2795.95
772.753	2765.53
772.94	2806.02
773.126	2809.71
773.313	2799.05
773.499	2818.81
773.686	2822.69
773.872	2776.58
774.059	2777.16
774.245	2760.3
774.432	2747.71
774.618	2688.42
774.804	2746.74
774.991	2701.01
775.177	2804.09
775.363	2730.27
775.55	2768.24
775.736	2718.45
775.922	2738.99
776.109	2738.79
776.295	2766.69
776.481	2770.57
776.667	2771.34
776.853	2702.56
777.04	2705.47
777.226	2742.67
777.412	2751.58
777.598	2696.36
777.784	2662.85
777.97	2652.96
778.156	2734.92
778.342	2664.2
778.528	2674.86
778.715	2613.83
778.901	2658
779.087	2681.06
779.272	2645.8
779.458	2646.18
779.644	2641.15
779.83	2655.68
780.016	2711.28
780.202	2653.35
780.388	2621
780.574	2550.86
780.76	2608.79
780.946	2655.48
781.131	2602.98
781.317	2577.4
781.503	2582.63
781.689	2564.42
781.874	2696.75
782.06	2564.42
782.246	2584.96
782.432	2526.45
782.617	2580.31
782.803	2618.28
782.989	2531.29
783.174	2535.17
783.36	2480.34
783.545	2498.16
783.731	2555.32
783.916	2440.81
784.102	2504.17
784.288	2464.06
784.473	2495.84
784.659	2502.62
784.844	2547.57
785.029	2488.67
785.215	2503.2
785.4	2421.24
785.586	2513.85
785.771	2464.06
785.956	2524.7
786.142	2430.16
786.327	2433.64
786.512	2424.92
786.698	2407.68
786.883	2370.09
787.068	2376.49
787.254	2417.56
787.439	2351.49
787.624	2361.38
787.809	2360.02
787.994	2357.31
788.18	2385.4
788.365	2321.46
788.55	2323.21
788.735	2360.79
788.92	2329.6
789.105	2308.68
789.29	2356.34
789.475	2250.36
789.66	2287.94
789.845	2279.03
790.03	2241.06
790.215	2305.38
790.4	2298.6
790.585	2333.09
790.77	2239.51
790.955	2218.2
791.14	2294.53
791.325	2317.2
791.51	2163.95
791.695	2246.1
791.879	2225.36
792.064	2211.22
792.249	2321.27
792.434	2228.08
792.618	2243.38
792.803	2273.8
792.988	2228.66
793.173	2244.74
793.357	2255.59
793.542	2187
793.727	2259.08
793.911	2256.75
794.096	2256.56
794.281	2289.88
794.465	2342.78
794.65	2272.64
794.834	2301.89
795.019	2308.29
795.203	2317.59
795.388	2328.83
795.572	2300.34
795.757	2271.67
795.941	2260.05
796.126	2252.3
796.31	2267.8
796.494	2267.8
796.679	2218.2
796.863	2205.99
797.048	2311
797.232	2291.24
797.416	2280.58
797.601	2265.66
797.785	2342.19
797.969	2301.51
798.153	2303.64
798.338	2324.56
798.522	2353.04
798.706	2293.95
798.89	2385.21
799.074	2406.52
799.258	2341.03
799.443	2327.66
799.627	2304.03
799.811	2371.84
799.995	2299.38
800.179	2299.18
800.363	2296.86
800.547	2334.06
800.731	2330.57
800.915	2240.09
801.099	2252.88
801.283	2238.93
801.467	2285.04
801.651	2268.96
801.835	2307.13
802.019	2288.72
802.202	2289.49
802.386	2260.24
802.57	2283.29
802.754	2268.96
802.938	2227.3
803.121	2251.91
803.305	2320.3
803.489	2260.63
803.673	2302.86
803.856	2304.41
804.04	2263.92
804.224	2265.28
804.407	2271.86
804.591	2266.44
804.775	2245.71
804.958	2281.16
805.142	2387.72
805.326	2292.4
805.509	2296.86
805.693	2322.63
805.876	2343.36
806.06	2287.75
806.243	2334.06
806.427	2323.21
806.61	2385.21
806.794	2291.82
806.977	2355.37
807.16	2298.41
807.344	2319.53
807.527	2294.14
807.71	2310.23
807.894	2303.44
808.077	2323.79
808.26	2304.99
808.444	2233.31
808.627	2301.7
808.81	2273.8
808.993	2206.96
809.177	2198.43
809.36	2218.78
809.543	2231.95
809.726	2134.11
809.909	2143.6
810.092	2170.73
810.276	2158.72
810.459	2163.17
810.642	2159.1
810.825	2111.63
811.008	2124.81
811.191	2032.2
811.374	2018.83
811.557	2090.32
811.74	2100.2
811.923	2011.08
812.106	2037.82
812.289	1959.93
812.472	1984.54
812.654	2009.34
812.837	1937.46
813.02	1917.11
813.203	1871.97
813.386	1780.71
813.569	1788.66
813.751	1716
813.934	1783.43
814.117	1710.97
814.3	1689.46
814.482	1631.34
814.665	1647.8
814.848	1609.25
815.03	1588.52
815.213	1553.06
815.396	1549.57
815.578	1524.58
815.761	1490.68
815.943	1537.76
816.126	1474.4
816.309	1440.88
816.491	1416.66
816.674	1319.4
816.856	1411.43
817.039	1389.35
817.221	1463.94
817.403	1408.14
817.586	1368.23
817.768	1443.01
817.951	1339.36
818.133	1358.54
818.315	1359.7
818.498	1388.76
818.68	1436.62
818.862	1442.82
819.045	1463.16
819.227	1413.18
819.409	1410.27
819.591	1456.38
819.774	1403.68
819.956	1392.64
820.138	1498.42
820.32	1431
820.502	1515.47
820.684	1580.38
820.866	1550.54
821.048	1580.96
821.231	1626.88
821.413	1625.52
821.595	1607.7
821.777	1615.64
821.959	1627.85
822.141	1669.5
822.323	1497.84
822.505	1454.25
822.686	1453.09
822.868	1341.1
823.05	1255.66
823.232	1258.57
823.414	1208.77
823.596	1281.04
823.778	1246.17
823.96	1275.62
824.141	1322.11
824.323	1327.54
824.505	1370.75
824.687	1426.35
824.868	1440.69
825.05	1571.08
825.232	1534.27
825.413	1597.62
825.595	1587.35
825.777	1494.36
825.958	1567.98
826.14	1572.82
826.321	1601.3
826.503	1565.27
826.685	1595.3
826.866	1607.7
827.048	1589.87
827.229	1525.36
827.411	1503.07
827.592	1418.21
827.773	1488.54
827.955	1373.65
828.136	1430.81
828.318	1387.8
828.499	1434.88
828.68	1349.82
828.862	1413.76
829.043	1431.97
829.224	1393.03
829.406	1387.8
829.587	1367.26
829.768	1423.06
829.949	1455.41
830.131	1429.06
830.312	1449.41
830.493	1414.14
830.674	1447.47
830.855	1377.14
831.036	1418.99
831.218	1497.26
831.399	1507.14
831.58	1412.21
831.761	1443.98
831.942	1436.62
832.123	1395.74
832.304	1384.31
832.485	1404.85
832.666	1384.31
832.847	1460.64
833.028	1451.54
833.209	1420.54
833.389	1370.36
833.57	1358.35
833.751	1387.6
833.932	1446.89
834.113	1429.84
834.294	1388.96
834.475	1450.38
834.655	1503.07
834.836	1467.04
835.017	1474.79
835.198	1390.31
835.378	1475.95
835.559	1501.91
835.74	1447.28
835.92	1439.33
836.101	1414.34
836.281	1482.34
836.462	1484.28
836.643	1517.41
836.823	1485.83
837.004	1513.54
837.184	1518.19
837.365	1483.12
837.545	1530.2
837.726	1465.29
837.906	1533.69
838.087	1477.89
838.267	1496.87
838.448	1433.52
838.628	1488.54
838.808	1472.46
838.989	1567.59
839.169	1452.89
839.349	1514.89
839.53	1544.73
839.71	1536.98
839.89	1487.58
840.07	1522.64
840.251	1458.9
840.431	1497.07
840.611	1505.98
840.791	1479.24
840.971	1498.04
841.151	1481.57
841.332	1434.29
841.512	1505.98
841.692	1432.94
841.872	1503.46
842.052	1432.74
842.232	1517.41
842.412	1409.69
842.592	1444.95
842.772	1466.07
842.952	1543.57
843.132	1430.81
843.312	1447.28
843.492	1447.08
843.672	1478.47
843.851	1405.81
844.031	1449.79
844.211	1455.03
844.391	1438.75
844.571	1455.99
844.751	1478.66
844.93	1427.9
845.11	1468.39
845.29	1422.28
845.47	1464.33
845.649	1453.09
845.829	1481.38
846.009	1415.69
846.188	1441.66
846.368	1448.63
846.547	1450.38
846.727	1486.41
846.907	1423.64
847.086	1422.48
847.266	1460.84
847.445	1429.26
847.625	1431.97
847.804	1376.17
847.984	1424.99
848.163	1438.36
848.343	1405.23
848.522	1435.84
848.701	1416.47
848.881	1393.61
849.06	1428.09
849.239	1415.11
849.419	1394.77
849.598	1317.47
849.777	1366.29
849.957	1315.14
850.136	1272.52
850.315	1276.39
850.494	1288.79
850.674	1291.12
850.853	1343.04
851.032	1315.72
851.211	1314.56
851.39	1315.14
851.569	1258.57
851.748	1315.92
851.927	1353.31
852.107	1312.82
852.286	1278.91
852.465	1279.68
852.644	1340.71
852.823	1280.07
853.002	1313.01
853.181	1281.04
853.359	1318.43
853.538	1242.68
853.717	1307.97
853.896	1227.18
854.075	1158.01
854.254	1120.04
854.433	1101.44
854.611	1151.42
854.79	1089.81
854.969	1164.02
855.148	1162.47
855.327	1127.4
855.505	1187.65
855.684	1164.02
855.863	1157.43
856.041	1144.84
856.22	1206.25
856.399	1156.85
856.577	1264.18
856.756	1269.61
856.934	1334.32
857.113	1314.95
857.291	1237.06
857.47	1207.42
857.648	1252.75
857.827	1242.68
858.005	1305.07
858.184	1231.25
858.362	1306.62
858.541	1233.18
858.719	1266.51
858.898	1232.99
859.076	1232.6
859.254	1299.83
859.433	1238.22
859.611	1185.91
859.789	1207.42
859.967	1273.29
860.146	1276.2
860.324	1193.08
860.502	1225.44
860.68	1163.63
860.859	1177.39
861.037	1185.91
861.215	1221.95
861.393	1191.53
861.571	1201.6
861.749	1186.88
861.927	1220.79
862.105	1195.02
862.283	1179.32
862.461	1157.82
862.639	1159.56
862.817	1171.19
862.995	1199.28
863.173	1174.67
863.351	1178.35
863.529	1176.8
863.707	1221.37
863.885	1178.35
864.063	1087.1
864.241	1146.39
864.418	1196.18
864.596	1163.24
864.774	1120.23
864.952	1158.4
865.129	1147.35
865.307	1118.29
865.485	1072.18
865.663	1188.43
865.84	1082.26
866.018	1095.24
866.196	974.92
866.373	995.84
866.551	996.23
866.728	917.38
866.906	964.65
867.084	949.93
867.261	1029.17
867.439	1051.45
867.616	1081.09
867.794	1051.06
867.971	1094.27
868.149	1053.19
868.326	1110.35
868.503	1131.86
868.681	1070.24
868.858	1038.86
869.035	1051.84
869.213	1065.01
869.39	1051.64
869.567	1106.09
869.745	1056.87
869.922	1061.33
870.099	1113.84
870.276	1071.6
870.454	1079.93
870.631	1074.51
870.808	1064.43
870.985	1074.89
871.162	1134.57
871.339	1047.96
871.517	1028.78
871.694	1012.89
871.871	1024.91
872.048	1035.18
872.225	1031.3
872.402	1046.03
872.579	1020.45
872.756	1054.36
872.933	993.52
873.11	1018.71
873.287	1042.93
873.463	987.51
873.64	999.53
873.817	1037.89
873.994	1018.13
874.171	978.99
874.348	1041.38
874.524	971.04
874.701	1003.98
874.878	960.39
875.055	1031.69
875.231	1006.69
875.408	1003.01
875.585	968.91
875.762	1012.12
875.938	966.78
876.115	967.17
876.291	973.76
876.468	980.54
876.645	924.93
876.821	945.47
876.998	946.25
877.174	957.87
877.351	954
877.527	948.96
877.704	958.45
877.88	978.99
878.057	916.21
878.233	977.83
878.409	921.06
878.586	940.82
878.762	942.18
878.938	933.46
879.115	872.82
879.291	922.8
879.467	878.63
879.644	935.98
879.82	924.93
879.996	919.12
880.172	858.09
880.349	893.93
880.525	927.84
880.701	873.98
880.877	872.23
881.053	908.08
881.229	894.51
881.405	935.2
881.581	871.85
881.757	869.52
881.933	905.17
882.109	937.53
882.285	889.28
882.461	828.83
882.637	912.73
882.813	853.83
882.989	853.25
883.165	938.3
883.341	881.15
883.517	928.23
883.693	906.33
883.869	909.43
884.044	862.74
884.22	911.56
884.396	914.08
884.572	928.61
884.747	922.41
884.923	900.71
885.099	919.7
885.275	976.08
885.45	882.31
885.626	877.66
885.801	826.9
885.977	886.57
886.153	803.84
886.328	903.43
886.504	853.44
886.679	895.48
886.855	850.73
887.03	900.71
887.206	920.28
887.381	872.23
887.557	883.86
887.732	893.35
887.908	898
888.083	927.65
888.258	867
888.434	886.76
888.609	889.86
888.784	922.61
888.96	885.21
889.135	852.86
889.31	868.75
889.485	907.5
889.661	864.68
889.836	890.64
890.011	864.87
890.186	883.47
890.361	878.82
890.537	905.95
890.712	901.1
890.887	895.29
891.062	898.78
891.237	926.87
891.412	867.2
891.587	886.18
891.762	893.16
891.937	909.24
892.112	845.69
892.287	853.44
892.462	811.4
892.637	819.53
892.812	801.52
892.987	798.22
893.161	781.37
893.336	791.64
893.511	780.79
893.686	801.71
893.861	801.9
894.035	811.78
894.21	787.76
894.385	753.85
894.56	785.05
894.734	715.69
894.909	719.56
895.084	728.09
895.258	713.75
895.433	721.89
895.608	698.44
895.782	631.6
895.957	651.75
896.131	700.19
896.306	614.16
896.48	597.11
896.655	624.04
896.829	555.84
897.004	577.35
897.178	578.9
897.353	550.03
897.527	605.25
897.701	580.06
897.876	534.92
898.05	610.87
898.224	581.42
898.399	604.28
898.573	563.98
898.747	467.3
898.921	542.67
899.096	432.23
899.27	450.45
899.444	468.85
899.618	520.58
899.792	519.42
899.967	500.24
900.141	517.48
900.315	477.18
900.489	491.33
900.663	504.11
900.837	465.56
901.011	472.73
901.185	553.13
901.359	509.73
901.533	498.88
901.707	521.75
901.881	508.38
902.055	459.94
902.229	476.41
902.403	548.48
902.576	504.11
902.75	502.37
902.924	615.52
903.098	540.15
903.272	595.95
903.446	620.56
903.619	593.82
903.793	651.56
903.967	630.63
904.14	675.58
904.314	640.71
904.488	655.62
904.661	674.42
904.835	612.81
905.009	672.29
905.182	703.48
905.356	656.01
905.529	639.16
905.703	575.03
905.876	592.08
906.05	586.46
906.223	566.89
906.397	545.77
906.57	517.1
906.744	498.11
906.917	495.78
907.09	492.88
907.264	503.53
907.437	477.76
907.61	467.69
907.784	468.27
907.957	493.85
908.13	429.91
908.304	494.04
908.477	421
908.65	439.21
908.823	392.71
908.996	500.82
909.17	448.7
909.343	440.95
909.516	445.99
909.689	439.98
909.862	399.3
910.035	429.52
910.208	414.6
910.381	414.41
910.554	510.31
910.727	431.07
910.9	430.49
911.073	417.51
911.246	490.55
911.419	476.41
911.592	461.3
911.765	413.44
911.938	420.8
912.11	453.35
912.283	439.21
912.456	467.88
912.629	437.08
912.802	414.41
912.974	368.49
913.147	334.78
913.32	302.62
913.493	350.67
913.665	364.23
913.838	396
914.01	358.8
914.183	379.53
914.356	353.38
914.528	409.18
914.701	441.34
914.873	435.53
915.046	371.98
915.218	334
915.391	281.89
915.563	323.74
915.736	351.05
915.908	414.22
916.081	367.33
916.253	349.89
916.425	376.05
916.598	379.92
916.77	376.24
916.942	328.39
917.115	287.5
917.287	378.37
917.459	325.29
917.632	315.6
917.804	276.85
917.976	351.05
918.148	352.41
918.32	354.35
918.493	384.77
918.665	418.67
918.837	375.27
919.009	436.88
919.181	436.3
919.353	392.13
919.525	377.6
919.697	402.98
919.869	409.95
920.041	448.9
920.213	490.55
920.385	422.74
920.557	389.61
920.729	424.1
920.901	411.5
921.073	376.63
921.244	390.77
921.416	443.28
921.588	397.75
921.76	396.39
921.932	477.18
922.103	404.33
922.275	395.81
922.447	407.82
922.619	334.59
922.79	379.73
922.962	374.3
923.134	396.39
923.305	340.01
923.477	328
923.648	329.16
923.82	358.22
923.991	323.74
924.163	312.11
924.335	335.75
924.506	319.67
924.677	362.48
924.849	309.98
925.02	345.05
925.192	345.05
925.363	334.78
925.535	340.59
925.706	305.33
925.877	399.68
926.049	325.48
926.22	298.55
926.391	334.97
926.562	368.1
926.734	316.57
926.905	364.62
927.076	262.71
927.247	325.87
927.419	278.98
927.59	275.69
927.761	270.26
927.932	270.26
928.103	300.87
928.274	246.82
928.445	241.2
928.616	229.77
928.787	258.06
928.958	275.69
929.129	252.82
929.3	230.93
929.471	184.04
929.642	161.57
929.813	116.43
929.984	192.18
930.155	136.58
930.326	177.26
930.496	177.84
930.667	101.51
930.838	158.66
931.009	127.66
931.18	143.94
931.35	118.94
931.521	126.31
931.692	96.86
931.863	53.26
932.033	96.86
932.204	105.19
932.374	105.77
932.545	58.69
932.716	107.9
932.886	98.41
933.057	49
933.227	35.25
933.398	110.03
933.568	67.02
933.739	23.43
933.909	30.21
934.08	69.15
934.25	-11.45
934.421	30.21
934.591	75.74
934.761	25.95
934.932	-13.58
935.102	19.75
935.272	22.46
935.443	28.27
935.613	29.05
935.783	60.63
935.953	-18.62
936.123	180.94
936.294	17.42
936.464	23.04
936.634	33.89
936.804	-12.22
936.974	5.41
937.144	54.81
937.314	42.61
937.484	15.1
937.655	16.84
937.825	73.61
937.995	45.9
938.165	89.3
938.334	-6.02
938.504	29.05
938.674	27.3
938.844	60.05
939.014	94.34
939.184	89.3
939.354	114.1
939.524	102.67
939.694	39.31
939.863	75.74
940.033	112.74
940.203	131.34
940.373	82.13
940.542	98.79
940.712	62.76
940.882	96.66
941.051	137.93
941.221	120.3
941.391	112.16
941.56	68.76
941.73	50.75
941.899	164.48
942.069	69.73
942.238	90.27
942.408	68.38
942.577	111.58
942.747	59.27
942.916	21.88
943.086	58.5
943.255	87.95
943.425	85.43
943.594	51.71
943.763	-12.61
943.933	25.17
944.102	-14.74
944.271	61.79
944.441	71.09
944.61	41.06
944.779	64.5
944.948	133.67
945.117	36.21
945.287	47.65
945.456	15.48
945.625	16.84
945.794	80.2
945.963	21.88
946.132	83.88
946.301	43.58
946.47	87.36
946.639	4.83
946.808	4.44
946.977	81.16
947.146	97.44
947.315	53.85
947.484	73.22
947.653	51.52
947.822	38.73
947.991	14.9
948.16	92.98
948.329	80.39
948.498	26.53
948.666	55.01
948.835	87.95
949.004	14.71
949.173	23.81
949.341	58.3
949.51	77.68
949.679	91.43
949.847	64.11
950.016	117.78
950.185	100.54
950.353	47.06
950.522	50.94
950.69	94.73
950.859	33.5
951.028	85.23
951.196	69.73
951.365	49.97
951.533	48.23
951.701	120.11
951.87	73.41
952.038	30.6
952.207	36.6
952.375	121.85
952.543	25.56
952.712	41.06
952.88	44.55
953.048	84.46
953.217	60.05
953.385	48.03
953.553	89.69
953.721	25.17
953.89	32.53
954.058	14.51
954.226	3.47
954.394	77.68
954.562	-0.21
954.73	50.75
954.898	23.62
955.067	87.56
955.235	36.8
955.403	90.08
955.571	125.53
955.739	83.3
955.907	31.76
956.075	52.49
956.243	42.41
956.41	83.3
956.578	32.15
956.746	-4.86
956.914	31.56
957.082	62.56
957.25	77.1
957.418	36.21
957.585	67.21
957.753	98.21
957.921	35.83
958.089	34.08
958.256	55.2
958.424	79.61
958.592	75.55
958.759	21.68
958.927	77.68
959.095	20.91
959.262	36.99
959.43	65.66
959.597	30.6
959.765	52.3
959.932	22.85
960.1	86.59
960.267	63.15
960.435	73.8
960.602	85.62
960.77	62.37
960.937	22.85
961.104	44.74
961.272	36.21
961.439	48.81
961.606	83.49
961.774	78.26
961.941	27.3
962.108	76.13
962.275	65.66
962.443	72.45
962.61	83.88
962.777	135.03
962.944	109.64
963.111	88.53
963.278	85.43
963.446	62.76
963.613	72.83
963.78	98.02
963.947	64.11
964.114	63.53
964.281	143.74
964.448	117.59
964.615	66.63
964.782	79.81
964.949	92.21
965.116	108.29
965.282	109.45
965.449	52.68
965.616	45.32
965.783	111.39
965.95	73.61
966.117	35.25
966.283	79.23
966.45	92.01
966.617	84.26
966.784	105.96
966.95	82.71
967.117	138.13
967.284	77.87
967.45	55.78
967.617	132.89
967.784	81.94
967.95	124.56
968.117	85.43
968.283	131.15
968.45	153.24
968.616	95.69
968.783	128.24
968.949	113.13
969.116	118.75
969.282	114.68
969.449	106.74
969.615	88.53
969.781	64.5
969.948	91.24
970.114	33.7
970.28	139.48
970.447	112.94
970.613	122.63
970.779	90.85
970.945	115.46
971.112	91.43
971.278	106.54
971.444	76.71
971.61	148.01
971.776	89.88
971.942	118.36
972.108	111
972.275	105.77
972.441	103.06
972.607	141.42
972.773	79.42
972.939	117.59
973.105	92.6
973.271	65.28
973.437	90.66
973.602	72.64
973.768	98.79
973.934	80.58
974.1	79.61
974.266	27.11
974.432	106.54
974.598	82.52
974.763	107.32
974.929	60.43
975.095	128.83
975.261	55.59
975.426	52.49
975.592	77.1
975.758	127.08
975.923	33.11
976.089	59.27
976.255	85.23
976.42	89.3
976.586	78.26
976.751	93.95
976.917	166.22
977.082	101.89
977.248	54.62
977.413	20.52
977.579	49
977.744	75.35
977.91	30.01
978.075	68.76
978.24	83.68
978.406	81.94
978.571	51.33
978.736	46.87
978.902	89.11
979.067	67.41
979.232	34.08
979.397	87.56
979.563	130.38
979.728	31.95
979.893	67.6
980.058	65.28
980.223	117.2
980.388	71.28
980.554	74.77
980.719	52.1
980.884	81.36
981.049	101.31
981.214	74
981.379	106.16
981.544	63.92
981.709	63.73
981.874	66.63
982.039	57.91
982.204	133.48
982.368	73.41
982.533	61.21
982.698	122.04
982.863	102.48
983.028	70.31
983.193	103.83
983.357	69.35
983.522	83.68
983.687	69.54
983.852	52.88
984.016	64.31
984.181	86.4
984.346	98.99
984.51	73.03
984.675	68.57
984.839	91.05
985.004	90.85
985.168	106.93
985.333	110.42
985.498	59.46
985.662	124.37
985.827	65.28
985.991	71.28
986.155	82.91
986.32	106.54
986.484	121.08
986.649	96.86
986.813	19.16
986.977	70.51
987.142	93.37
987.306	66.63
987.47	59.27
987.634	70.7
987.799	90.66
987.963	83.88
988.127	98.41
988.291	139.29
988.455	68.18
988.62	77.68
988.784	100.15
988.948	109.84
989.112	62.18
989.276	67.6
989.44	89.5
989.604	41.06
989.768	56.75
989.932	126.31
990.096	59.66
990.26	43.19
990.424	18.58
990.588	57.33
990.752	134.64
990.915	95.69
991.079	64.11
991.243	54.62
991.407	81.94
991.571	77.1
991.734	93.37
991.898	112.74
992.062	160.41
992.226	49.2
992.389	62.18
992.553	20.52
992.717	40.09
992.88	50.94
993.044	69.35
993.207	63.53
993.371	94.34
993.535	77.29
993.698	57.14
993.862	101.31
994.025	71.86
994.189	76.13
994.352	61.01
994.515	70.7
994.679	106.16
994.842	50.36
995.006	87.95
995.169	21.3
995.332	43.96
995.496	81.75
995.659	8.7
995.822	69.93
995.985	63.15
996.149	106.74
996.312	57.33
996.475	133.09
996.638	70.31
996.801	93.76
996.964	107.13
997.128	66.25
997.291	65.47
997.454	56.75
997.617	15.68
997.78	146.26
997.943	39.31
998.106	90.08
998.269	52.3
998.432	55.01
998.595	74.77
998.758	12.96
998.92	20.13
999.083	24.2
999.246	45.71
999.409	21.1
999.572	-2.15
999.735	26.53
999.897	58.88
1000.06	30.6
1000.223	35.83
1000.386	68.76
1000.548	84.26
1000.711	80.2
1000.874	92.01
1001.036	24.2
1001.199	91.82
1001.361	21.68
1001.524	74.96
1001.687	77.68
1001.849	28.27
1002.012	87.17
1002.174	47.26
1002.337	94.92
1002.499	59.85
1002.661	95.69
1002.824	3.08
1002.986	18.97
1003.149	61.79
1003.311	18.2
1003.473	102.67
1003.636	32.92
1003.798	76.13
1003.96	83.68
1004.123	50.75
1004.285	26.72
1004.447	33.89
1004.609	27.3
1004.771	90.46
1004.933	28.27
1005.096	15.29
1005.258	4.25
1005.42	33.5
1005.582	79.81
1005.744	66.63
1005.906	-16.1
1006.068	67.41
1006.23	2.89
1006.392	-8.35
1006.554	20.13
1006.716	106.54
1006.878	48.61
1007.04	-7.57
1007.202	49.58
1007.363	53.07
1007.525	60.63
1007.687	64.5
1007.849	101.12
1008.011	-12.03
1008.172	-4.67
1008.334	39.51
1008.496	67.02
1008.658	8.31
1008.819	27.88
1008.981	27.88
1009.143	12.38
1009.304	16.45
1009.466	56.36
1009.627	78.84
1009.789	125.53
1009.95	27.69
1010.112	7.93
1010.273	49.97
1010.435	38.15
1010.596	55.4
1010.758	21.1
1010.919	30.21
1011.081	-2.15
1011.242	36.41
1011.403	73.8
1011.565	15.48
1011.726	52.68
1011.887	-11.06
1012.049	17.23
1012.21	72.83
1012.371	104.41
1012.532	-45.55
1012.693	51.13
1012.855	10.45
1013.016	10.45
1013.177	58.5
1013.338	39.9
1013.499	97.44
1013.66	62.56
1013.821	57.91
1013.982	37.38
1014.143	13.16
1014.304	-5.44
1014.465	58.5
1014.626	77.48
1014.787	49.58
1014.948	93.37
1015.109	-38.77
1015.27	50.94
1015.431	14.51
1015.592	18.58
1015.752	54.04
1015.913	30.01
1016.074	23.81
1016.235	33.11
1016.395	36.8
1016.556	42.61
1016.717	4.44
1016.877	64.89
1017.038	8.9
1017.199	44.55
1017.359	12.38
1017.52	34.28
1017.681	-6.22
1017.841	27.5
1018.002	13.16
1018.162	31.95
1018.323	62.18
1018.483	32.73
1018.644	19.94
1018.804	-17.45
1018.964	-3.5
1019.125	14.9
1019.285	19.55
1019.446	-1.37
1019.606	12
1019.766	-19.97
1019.926	33.31
1020.087	39.9
1020.247	-30.05
1020.407	64.7
1020.567	48.23
1020.728	19.36
1020.888	-12.03
1021.048	13.16
1021.208	18
1021.368	22.26
1021.528	56.17
1021.688	70.51
1021.848	30.98
1022.008	34.08
1022.168	14.13
1022.328	17.81
1022.488	46.1
1022.648	2.5
1022.808	22.07
1022.968	50.36
1023.128	-18.62
1023.288	18
1023.448	32.53
1023.608	69.93
1023.767	28.08
1023.927	-4.86
1024.087	-15.13
1024.247	-11.64
1024.406	-18.81
1024.566	13.55
1024.726	11.61
1024.885	40.28
1025.045	33.11
1025.205	22.07
1025.364	9.28
1025.524	38.93
1025.683	23.23
1025.843	42.41
1026.003	33.89
1026.162	59.08
1026.321	75.35
1026.481	12.58
1026.64	7.73
1026.8	16.65
1026.959	26.53
1027.119	22.85
1027.278	11.8
1027.437	5.8
1027.597	-5.83
1027.756	32.92
1027.915	8.7
1028.074	47.84
1028.234	0.95
1028.393	30.98
1028.552	12
1028.711	-41.28
1028.87	38.54
1029.03	-7.18
1029.189	22.26
1029.348	-36.44
1029.507	12.19
1029.666	8.12
1029.825	-23.07
1029.984	20.33
1030.143	24.01
1030.302	45.32
1030.461	-10.67
1030.62	29.63
1030.779	23.23
1030.938	-7.38
1031.097	-5.63
1031.255	42.22
1031.414	50.36
1031.573	37.57
1031.732	-16.68
1031.891	31.76
1032.049	51.13
1032.208	30.01
1032.367	-12.03
1032.525	-10.09
1032.684	9.86
1032.843	8.51
1033.001	-50.2
1033.16	139.87
1033.319	53.07
1033.477	18.39
1033.636	-37.02
1033.794	-11.25
1033.953	42.03
1034.111	59.27
1034.27	-7.57
1034.428	9.67
1034.587	-31.98
1034.745	0.18
1034.903	10.25
1035.062	33.7
1035.22	-5.25
1035.378	29.63
1035.537	13.74
1035.695	18.2
1035.853	16.06
1036.011	35.05
1036.17	16.45
1036.328	-47.48
1036.486	2.31
1036.644	3.08
1036.802	-55.62
1036.96	4.83
1037.119	4.25
1037.277	-1.76
1037.435	-27.33
1037.593	-41.48
1037.751	20.91
1037.909	50.75
1038.067	50.75
