Data from oakcork_FLMT105791__29__17-27-04-066.txt Node

Date: Mon Mar 20 17:27:04 GMT 2023
User: antho
Spectrometer: FLMT10579
Trigger mode: 0
Integration Time (sec): 1.000000E-1
Scans to average: 10
Electric dark correction enabled: true
Nonlinearity correction enabled: false
Boxcar width: 0
XAxis mode: Wavelengths
Number of Pixels in Spectrum: 3648
>>>>>Begin Spectral Data<<<<<
345.248	-150.56
345.464	-150.56
345.681	-150.56
345.898	-145.71
346.114	-139.13
346.331	-11.64
346.548	35.05
346.764	-0.21
346.981	-19
347.197	-24.04
347.414	30.6
347.631	-24.43
347.847	39.12
348.064	-17.65
348.28	35.83
348.497	-37.6
348.713	-6.02
348.93	11.8
349.146	15.29
349.363	-24.62
349.579	0.57
349.796	6.96
350.012	-7.18
350.229	59.08
350.445	13.55
350.661	7.35
350.878	19.16
351.094	12.77
351.311	30.6
351.527	34.08
351.743	-23.85
351.96	35.63
352.176	44.16
352.392	4.83
352.609	54.81
352.825	1.15
353.041	6.96
353.257	12.96
353.474	-3.31
353.69	-3.7
353.906	30.6
354.122	-39.35
354.339	38.15
354.555	3.86
354.771	-0.98
354.987	59.08
355.203	70.31
355.42	-0.79
355.636	-1.37
355.852	-23.46
356.068	6.77
356.284	-31.02
356.5	72.83
356.716	11.8
356.932	3.67
357.148	24.59
357.364	3.47
357.58	56.75
357.796	41.83
358.012	55.98
358.228	32.92
358.444	-18.23
358.66	64.7
358.876	19.55
359.092	6.38
359.308	10.64
359.524	36.6
359.74	12.96
359.956	1.53
360.172	41.83
360.388	42.41
360.604	2.12
360.819	86.4
361.035	13.55
361.251	19.75
361.467	-4.86
361.683	48.81
361.898	26.72
362.114	25.17
362.33	12.19
362.546	43.38
362.762	-6.99
362.977	20.13
363.193	1.34
363.409	69.73
363.624	-15.52
363.84	1.92
364.056	-8.15
364.271	36.6
364.487	21.49
364.703	-3.12
364.918	-35.67
365.134	-2.15
365.35	9.67
365.565	97.83
365.781	25.56
365.996	34.47
366.212	92.6
366.427	30.4
366.643	7.54
366.858	10.06
367.074	-17.45
367.289	74.96
367.505	101.7
367.72	-29.08
367.936	-11.25
368.151	76.51
368.367	43.96
368.582	24.4
368.798	-6.02
369.013	71.67
369.228	24.4
369.444	14.13
369.659	79.42
369.874	18.78
370.09	73.41
370.305	-22.49
370.52	13.16
370.736	47.06
370.951	18.58
371.166	72.06
371.381	60.82
371.597	69.93
371.812	21.3
372.027	-11.45
372.242	-0.02
372.458	93.56
372.673	2.31
372.888	24.2
373.103	64.7
373.318	123.4
373.533	20.71
373.749	36.02
373.964	-23.85
374.179	81.94
374.394	-16.1
374.609	68.96
374.824	21.88
375.039	74.19
375.254	-28.3
375.469	87.75
375.684	42.03
375.899	55.59
376.114	51.52
376.329	42.61
376.544	68.76
376.759	66.25
376.974	22.07
377.189	25.95
377.404	12.77
377.619	53.07
377.834	-6.22
378.049	-3.5
378.264	-4.86
378.478	19.94
378.693	-0.21
378.908	35.83
379.123	25.17
379.338	71.28
379.553	33.89
379.767	46.68
379.982	81.16
380.197	53.65
380.412	28.85
380.626	61.6
380.841	103.83
381.056	40.28
381.271	103.25
381.485	41.64
381.7	1.73
381.915	45.32
382.129	24.2
382.344	50.94
382.559	24.2
382.773	67.6
382.988	8.9
383.202	25.56
383.417	6.18
383.632	118.36
383.846	37.96
384.061	20.91
384.275	8.31
384.49	54.62
384.704	63.53
384.919	37.38
385.133	40.86
385.348	82.13
385.562	14.71
385.777	81.36
385.991	51.52
386.206	27.5
386.42	18.97
386.634	92.98
386.849	71.86
387.063	24.98
387.277	-22.1
387.492	12.96
387.706	6.18
387.92	2.31
388.135	75.16
388.349	34.86
388.563	45.51
388.778	48.23
388.992	69.15
389.206	69.93
389.42	123.79
389.635	33.11
389.849	57.72
390.063	85.04
390.277	62.76
390.491	108.87
390.706	59.08
390.92	61.01
391.134	50.55
391.348	80
391.562	33.7
391.776	50.36
391.99	33.11
392.205	96.28
392.419	18.97
392.633	57.53
392.847	106.93
393.061	33.89
393.275	86.4
393.489	34.86
393.703	25.56
393.917	82.71
394.131	30.01
394.345	65.28
394.559	82.91
394.773	25.75
394.986	63.15
395.2	43.19
395.414	81.94
395.628	56.17
395.842	82.91
396.056	70.7
396.27	19.75
396.484	65.86
396.697	33.5
396.911	78.65
397.125	74.58
397.339	85.43
397.553	75.16
397.766	114.68
397.98	80.2
398.194	100.15
398.408	68.57
398.621	105.38
398.835	93.76
399.049	94.92
399.262	119.72
399.476	111.39
399.69	113.52
399.903	153.82
400.117	71.48
400.331	123.01
400.544	49.58
400.758	193.92
400.971	92.79
401.185	96.66
401.398	88.91
401.612	154.4
401.826	102.28
402.039	121.46
402.253	63.34
402.466	103.83
402.68	90.66
402.893	120.49
403.106	114.49
403.32	104.41
403.533	122.43
403.747	89.3
403.96	118.36
404.174	141.42
404.387	73.41
404.6	117.59
404.814	134.25
405.027	111.97
405.24	93.56
405.454	106.74
405.667	152.46
405.88	56.17
406.094	111
406.307	123.4
406.52	135.61
406.733	80.39
406.947	38.93
407.16	162.93
407.373	153.82
407.586	84.07
407.799	70.9
408.012	115.84
408.226	116.43
408.439	173.78
408.652	72.64
408.865	117.98
409.078	140.84
409.291	145.49
409.504	72.06
409.717	138.71
409.93	129.21
410.143	128.05
410.357	89.88
410.57	89.11
410.783	103.64
410.996	127.28
411.209	115.65
411.421	164.48
411.634	126.11
411.847	103.06
412.06	132.51
412.273	148.78
412.486	118.94
412.699	190.82
412.912	129.79
413.125	155.76
413.338	132.89
413.55	128.05
413.763	130.76
413.976	130.76
414.189	105.77
414.402	118.17
414.615	170.68
414.827	80.2
415.04	138.9
415.253	154.59
415.466	141.23
415.678	179.01
415.891	137.93
416.104	114.88
416.316	150.53
416.529	111.19
416.742	141.03
416.954	179.78
417.167	117.2
417.38	131.73
417.592	155.18
417.805	123.01
418.017	83.68
418.23	179.78
418.442	117.01
418.655	111.58
418.868	128.63
419.08	178.23
419.293	175.71
419.505	149.36
419.718	148.39
419.93	173.58
420.142	133.28
420.355	197.99
420.567	198.19
420.78	174.94
420.992	140.26
421.205	215.24
421.417	139.09
421.629	156.92
421.842	137.93
422.054	107.9
422.266	172.03
422.479	185.4
422.691	103.64
422.903	177.46
423.115	151.11
423.328	181.91
423.54	125.73
423.752	149.36
423.964	121.27
424.177	154.98
424.389	141.23
424.601	251.86
424.813	187.14
425.025	176.1
425.238	201.09
425.45	151.11
425.662	144.71
425.874	419.06
426.086	146.46
426.298	195.09
426.51	168.16
426.722	176.29
426.934	149.36
427.146	190.24
427.358	123.01
427.57	187.34
427.782	151.11
427.994	166.8
428.206	130.18
428.418	132.51
428.63	172.42
428.842	195.28
429.054	184.24
429.266	198.19
429.478	146.26
429.69	162.54
429.902	122.24
430.114	189.66
430.325	152.08
430.537	112.36
430.749	152.08
430.961	103.25
431.173	157.69
431.384	176.1
431.596	71.48
431.808	148.59
432.02	143.36
432.231	191.99
432.443	217.17
432.655	220.66
432.867	166.61
433.078	216.01
433.29	258.44
433.502	209.04
433.713	210.78
433.925	173.19
434.136	241.78
434.348	152.46
434.56	133.48
434.771	257.09
434.983	124.18
435.194	184.04
435.406	209.81
435.617	241.97
435.829	268.32
436.04	242.75
436.252	245.46
436.463	267.36
436.675	255.34
436.886	212.14
437.098	224.92
437.309	274.72
437.521	225.12
437.732	224.54
437.943	234.81
438.155	220.86
438.366	156.14
438.578	266.77
438.789	217.76
439	222.79
439.211	197.99
439.423	228.99
439.634	272.2
439.845	239.46
440.057	256.31
440.268	271.04
440.479	215.04
440.69	246.62
440.902	211.36
441.113	249.14
441.324	217.76
441.535	260.96
441.746	297.97
441.957	219.11
442.168	226.67
442.38	263.67
442.591	294.67
442.802	239.26
443.013	207.68
443.224	260.38
443.435	248.56
443.646	241.97
443.857	280.53
444.068	238.87
444.279	227.06
444.49	313.27
444.701	237.52
444.912	336.91
445.123	296.22
445.334	281.11
445.545	291.19
445.756	266
445.967	244.11
446.178	276.85
446.388	276.85
446.599	297.97
446.81	297.19
447.021	259.22
447.232	303.97
447.443	306.1
447.653	230.54
447.864	324.32
448.075	288.86
448.286	309.2
448.496	268.32
448.707	335.75
448.918	268.13
449.129	372.75
449.339	238.29
449.55	320.05
449.761	259.02
449.971	340.59
450.182	295.45
450.393	340.79
450.603	264.26
450.814	334.2
451.024	314.05
451.235	340.4
451.446	385.93
451.656	367.72
451.867	303.39
452.077	307.85
452.288	383.8
452.498	349.89
452.709	303.78
452.919	327.22
453.13	318.89
453.34	323.35
453.55	250.89
453.761	351.44
453.971	345.63
454.182	339.24
454.392	335.55
454.602	395.42
454.813	320.44
455.023	357.83
455.233	266.39
455.444	317.15
455.654	272.97
455.864	293.7
456.075	301.07
456.285	301.45
456.495	308.43
456.705	331.29
456.916	347.18
457.126	410.53
457.336	327.42
457.546	277.62
457.756	300.1
457.967	360.74
458.177	331.49
458.387	328.77
458.597	349.89
458.807	313.66
459.017	316.37
459.227	315.4
459.437	309.59
459.647	361.13
459.857	359.77
460.068	320.83
460.278	375.27
460.488	339.04
460.698	423.52
460.908	347.95
461.117	320.64
461.327	316.76
461.537	358.22
461.747	340.59
461.957	346.6
462.167	420.42
462.377	402.78
462.587	376.82
462.797	384.18
463.007	368.68
463.216	372.17
463.426	438.05
463.636	402.78
463.846	325.67
464.056	374.69
464.265	382.44
464.475	357.64
464.685	353.96
464.895	402.59
465.104	354.54
465.314	400.46
465.524	361.52
465.733	337.1
465.943	425.84
466.153	434.37
466.362	401.43
466.572	360.16
466.782	353.77
466.991	372.75
467.201	437.66
467.41	311.92
467.62	371.78
467.829	389.61
468.039	422.55
468.249	386.12
468.458	369.07
468.668	419.25
468.877	399.88
469.086	469.24
469.296	455.29
469.505	372.95
469.715	472.15
469.924	421
470.134	453.93
470.343	452.77
470.552	397.17
470.762	417.51
470.971	367.91
471.18	425.07
471.39	414.8
471.599	399.3
471.808	417.12
472.018	395.42
472.227	467.69
472.436	472.15
472.645	439.79
472.855	417.9
473.064	479.9
473.273	469.24
473.482	449.09
473.691	498.69
473.901	458.58
474.11	461.49
474.319	520.39
474.528	442.89
474.737	498.11
474.946	481.06
475.155	489.39
475.364	488.81
475.573	493.46
475.783	485.32
475.992	502.37
476.201	539.18
476.41	485.51
476.619	442.7
476.828	474.66
477.037	469.05
477.245	485.13
477.454	529.69
477.663	476.41
477.872	499.66
478.081	562.24
478.29	457.23
478.499	588.59
478.708	520.2
478.917	592.66
479.125	516.13
479.334	550.61
479.543	510.7
479.752	548.09
479.961	533.37
480.169	560.11
480.378	538.21
480.587	652.33
480.796	568.63
481.004	570.76
481.213	595.76
481.422	597.5
481.63	587.81
481.839	596.73
482.048	608.93
482.256	588.39
482.465	621.14
482.674	610.09
482.882	619.2
483.091	674.61
483.299	642.84
483.508	639.74
483.716	643.03
483.925	619.97
484.134	600.6
484.342	604.09
484.551	653.3
484.759	650.97
484.967	650.59
485.176	659.69
485.384	638.38
485.593	689.92
485.801	648.46
486.01	602.54
486.218	597.69
486.426	511.09
486.635	561.46
486.843	564.95
487.051	599.63
487.26	579.09
487.468	654.07
487.676	639.16
487.885	614.94
488.093	636.06
488.301	665.7
488.509	688.76
488.717	699.99
488.926	676.16
489.134	645.36
489.342	706.97
489.55	645.74
489.758	673.06
489.967	668.02
490.175	787.76
490.383	675.58
490.591	774.97
490.799	675.58
491.007	735.06
491.215	710.84
491.423	716.85
491.631	733.9
491.839	724.99
492.047	708.52
492.255	673.64
492.463	655.24
492.671	678.87
492.879	768
493.087	728.86
493.295	726.73
493.503	744.55
493.711	737.19
493.919	751.53
494.127	738.94
494.334	790.47
494.542	707.94
494.75	733.51
494.958	741.65
495.166	813.14
495.374	793.57
495.581	766.84
495.789	757.15
495.997	834.65
496.205	761.99
496.412	757.92
496.62	750.56
496.828	798.22
497.035	775.55
497.243	836.58
497.451	784.66
497.658	805.78
497.866	785.05
498.074	840.07
498.281	772.26
498.489	871.65
498.696	772.65
498.904	775.75
499.112	761.8
499.319	856.15
499.527	799.19
499.734	857.12
499.942	773.62
500.149	813.53
500.357	823.41
500.564	772.84
500.771	764.9
500.979	766.64
501.186	765.48
501.394	819.53
501.601	777.3
501.808	796.87
502.016	811.2
502.223	765.87
502.43	800.74
502.638	788.73
502.845	754.82
503.052	851.31
503.26	791.83
503.467	872.04
503.674	809.85
503.881	807.13
504.089	882.31
504.296	841.04
504.503	779.82
504.71	808.49
504.917	768.97
505.125	846.85
505.332	844.33
505.539	865.26
505.746	879.4
505.953	856.15
506.16	863.71
506.367	902.65
506.574	868.36
506.781	925.32
506.988	862.74
507.195	862.74
507.402	879.21
507.609	886.96
507.816	836.78
508.023	840.85
508.23	834.45
508.437	814.88
508.644	860.22
508.851	932.3
509.058	914.47
509.265	890.45
509.472	883.28
509.679	954.58
509.885	895.48
510.092	897.42
510.299	855.38
510.506	893.93
510.713	927.84
510.92	890.64
511.126	916.8
511.333	952.64
511.54	939.46
511.746	981.89
511.953	983.25
512.16	988.87
512.367	926.68
512.573	931.33
512.78	923.38
512.987	909.43
513.193	930.16
513.4	839.3
513.606	944.89
513.813	943.73
514.02	947.8
514.226	972.98
514.433	970.08
514.639	916.8
514.846	954.58
515.052	939.08
515.259	935.78
515.465	953.41
515.672	970.85
515.878	1028.98
516.085	975.11
516.291	960.39
516.497	926.68
516.704	954
516.91	913.7
517.117	855.38
517.323	823.99
517.529	886.18
517.736	883.66
517.942	880.57
518.148	891.61
518.354	894.51
518.561	907.69
518.767	936.95
518.973	963.1
519.179	957.29
519.386	904.01
519.592	927.06
519.798	939.85
520.004	1007.66
520.21	977.83
520.417	1001.27
520.623	1050.29
520.829	1056.49
521.035	1055.71
521.241	1028.39
521.447	1029.17
521.653	1159.95
521.859	1041.18
522.065	1040.6
522.271	1164.6
522.477	1065.4
522.683	1133.99
522.889	1075.86
523.095	1094.07
523.301	1097.56
523.507	1065.79
523.713	1059.2
523.919	1048.74
524.125	1138.64
524.331	1077.41
524.537	1184.55
524.742	1190.95
524.948	1177.58
525.154	1169.25
525.36	1263.41
525.566	1137.67
525.772	1229.12
525.977	1139.22
526.183	1158.01
526.389	1170.41
526.595	1160.53
526.8	1128.95
527.006	1080.32
527.212	1046.8
527.417	1063.07
527.623	1050.68
527.829	1123.14
528.034	1128.95
528.24	1141.74
528.446	1073.92
528.651	1224.66
528.857	1218.46
529.062	1238.03
529.268	1216.14
529.473	1241.52
529.679	1215.17
529.884	1266.12
530.09	1258.37
530.295	1255.08
530.501	1266.32
530.706	1223.3
530.912	1186.1
531.117	1249.46
531.323	1252.95
531.528	1277.55
531.733	1278.33
531.939	1271.93
532.144	1269.42
532.35	1268.45
532.555	1320.37
532.76	1269.61
532.966	1292.47
533.171	1226.6
533.376	1247.52
533.581	1200.05
533.787	1253.33
533.992	1257.79
534.197	1281.23
534.402	1284.72
534.607	1284.92
534.813	1389.35
535.018	1281.82
535.223	1283.75
535.428	1314.56
535.633	1345.36
535.838	1334.13
536.043	1342.46
536.249	1412.01
536.454	1293.25
536.659	1341.3
536.864	1311.27
537.069	1313.01
537.274	1367.84
537.479	1372.3
537.684	1369.58
537.889	1306.03
538.094	1417.44
538.299	1319.21
538.504	1354.28
538.708	1341.49
538.913	1387.8
539.118	1349.43
539.323	1359.9
539.528	1308.17
539.733	1354.08
539.938	1355.63
540.142	1357.18
540.347	1352.92
540.552	1306.03
540.757	1324.25
540.962	1337.23
541.166	1297.9
541.371	1266.51
541.576	1363
541.781	1213.23
541.985	1371.71
542.19	1333.55
542.395	1403.88
542.599	1406.59
542.804	1381.6
543.008	1432.16
543.213	1345.56
543.418	1340.91
543.622	1395.74
543.827	1319.79
544.031	1403.1
544.236	1416.08
544.44	1398.65
544.645	1453.09
544.849	1396.71
545.054	1434.68
545.258	1466.84
545.463	1452.31
545.667	1416.08
545.872	1404.46
546.076	1426.74
546.281	1430.61
546.485	1395.35
546.689	1426.93
546.894	1423.44
547.098	1417.63
547.302	1384.31
547.507	1416.08
547.711	1402.71
547.915	1443.98
548.119	1386.63
548.324	1426.74
548.528	1485.25
548.732	1432.94
548.936	1413.18
549.141	1463.74
549.345	1409.49
549.549	1429.26
549.753	1427.13
549.957	1506.56
550.161	1499.01
550.366	1440.88
550.57	1428.87
550.774	1413.18
550.978	1428.68
551.182	1469.75
551.386	1410.08
551.59	1418.6
551.794	1404.07
551.998	1449.79
552.202	1440.3
552.406	1411.82
552.61	1456.77
552.814	1448.24
553.018	1480.21
553.222	1431.78
553.426	1404.85
553.63	1536.4
553.833	1443.4
554.037	1400.39
554.241	1468.98
554.445	1456.96
554.649	1424.61
554.853	1427.13
555.056	1472.85
555.26	1473.63
555.464	1469.36
555.668	1428.29
555.871	1485.44
556.075	1453.67
556.279	1420.54
556.483	1382.56
556.686	1432.74
556.89	1441.27
557.094	1430.03
557.297	1336.06
557.501	1466.65
557.704	1349.63
557.908	1447.47
558.112	1379.66
558.315	1452.51
558.519	1374.04
558.722	1419.57
558.926	1348.27
559.129	1329.86
559.333	1308.75
559.536	1335.1
559.74	1318.24
559.943	1330.45
560.147	1290.92
560.35	1349.63
560.553	1303.13
560.757	1298.67
560.96	1434.49
561.164	1356.02
561.367	1431.78
561.57	1319.01
561.774	1364.35
561.977	1362.8
562.18	1299.64
562.384	1428.68
562.587	1346.53
562.79	1324.05
562.993	1333.35
563.197	1370.36
563.4	1430.42
563.603	1409.88
563.806	1422.67
564.009	1319.98
564.212	1373.85
564.416	1328.51
564.619	1346.33
564.822	1309.52
565.025	1363.96
565.228	1310.3
565.431	1306.03
565.634	1207.03
565.837	1278.33
566.04	1238.61
566.243	1262.05
566.446	1203.74
566.649	1286.66
566.852	1241.71
567.055	1263.8
567.258	1296.73
567.461	1348.66
567.664	1352.73
567.867	1217.1
568.07	1268.64
568.273	1278.52
568.475	1292.47
568.678	1257.6
568.881	1197.92
569.084	1254.11
569.287	1149.49
569.489	1194.63
569.692	1237.45
569.895	1287.43
570.098	1157.62
570.3	1162.47
570.503	1116.16
570.706	1142.51
570.909	1154.72
571.111	1108.41
571.314	1144.64
571.516	1151.04
571.719	1161.5
571.922	1144.06
572.124	1146.97
572.327	1156.27
572.529	1093.88
572.732	1114.03
572.935	1155.49
573.137	1179.52
573.34	1143.29
573.542	1151.42
573.745	1171.96
573.947	1176.03
574.15	1136.7
574.352	1105.7
574.554	1149.68
574.757	1126.43
574.959	1085.94
575.162	1122.36
575.364	1116.55
575.566	1158.01
575.769	1037.31
575.971	1112.48
576.173	1003.79
576.376	1104.34
576.578	1108.61
576.78	1128.37
576.982	1009.41
577.185	1092.14
577.387	1044.86
577.589	1059.2
577.791	1092.72
577.993	1109.38
578.196	1072.57
578.398	1121.01
578.6	1076.64
578.802	1011.15
579.004	1046.41
579.206	1029.56
579.408	1065.01
579.61	1045.44
579.812	1096.21
580.014	998.36
580.216	1057.84
580.418	1064.04
580.62	1037.11
580.822	1004.56
581.024	1085.16
581.226	1074.51
581.428	1051.06
581.63	1123.33
581.832	1034.21
582.034	1088.07
582.236	1089.23
582.438	1106.28
582.64	1110.54
582.841	1103.37
583.043	1148.13
583.245	1086.13
583.447	1098.14
583.649	1077.22
583.85	1094.85
584.052	1131.47
584.254	1074.31
584.456	1070.82
584.657	1060.75
584.859	1072.76
585.061	1073.15
585.262	1029.56
585.464	1014.83
585.666	1091.56
585.867	1045.64
586.069	1096.98
586.27	1066.17
586.472	1031.88
586.674	1030.53
586.875	1019.68
587.077	1010.76
587.278	1043.51
587.48	1028.98
587.681	1142.9
587.883	1065.59
588.084	962.71
588.285	1002.43
588.487	987.13
588.688	1016.38
588.89	948.38
589.091	924.93
589.292	943.34
589.494	951.09
589.695	892
589.896	830
590.098	837.75
590.299	916.8
590.5	887.54
590.702	908.66
590.903	921.06
591.104	955.93
591.305	925.9
591.507	1017.16
591.708	970.66
591.909	921.25
592.11	1005.73
592.311	982.09
592.512	927.84
592.714	912.15
592.915	919.51
593.116	890.83
593.317	971.82
593.518	954.38
593.719	959.03
593.92	952.64
594.121	985.58
594.322	973.76
594.523	950.12
594.724	905.36
594.925	919.9
595.126	966.59
595.327	1004.95
595.528	956.32
595.729	961.36
595.929	927.45
596.13	961.94
596.331	949.54
596.532	942.37
596.733	1002.04
596.934	968.91
597.135	989.64
597.335	983.44
597.536	893.16
597.737	979.38
597.938	917.38
598.138	976.28
598.339	926.48
598.54	960.2
598.74	944.89
598.941	941.6
599.142	1011.54
599.342	973.56
599.543	921.06
599.744	940.24
599.944	911.56
600.145	918.35
600.345	898
600.546	1024.13
600.746	979.96
600.947	1002.04
601.147	948.96
601.348	1009.6
601.548	917.38
601.749	960.78
601.949	907.5
602.15	919.51
602.35	952.83
602.551	965.62
602.751	902.46
602.951	928.03
603.152	873.59
603.352	946.44
603.552	928.03
603.753	961.94
603.953	944.89
604.153	930.94
604.354	907.3
604.554	920.09
604.754	908.08
604.954	909.43
605.155	930.16
605.355	964.46
605.555	937.14
605.755	1005.14
605.955	912.15
606.155	981.12
606.356	926.1
606.556	947.41
606.756	951.67
606.956	886.38
607.156	1001.85
607.356	919.31
607.556	939.27
607.756	926.1
607.956	981.7
608.156	949.54
608.356	884.44
608.556	923.77
608.756	931.71
608.956	887.54
609.156	913.11
609.356	867.58
609.556	866.62
609.755	913.31
609.955	850.92
610.155	878.43
610.355	893.35
610.555	855.57
610.755	869.72
610.954	852.28
611.154	897.61
611.354	938.88
611.554	876.5
611.753	854.02
611.953	839.68
612.153	919.12
612.352	893.74
612.552	839.3
612.752	812.56
612.951	867.2
613.151	857.32
613.351	810.82
613.55	858.28
613.75	888.9
613.949	854.99
614.149	849.76
614.348	850.34
614.548	844.72
614.747	789.31
614.947	847.24
615.146	768
615.346	868.94
615.545	880.76
615.745	861
615.944	854.41
616.144	854.8
616.343	838.72
616.542	806.55
616.742	837.75
616.941	825.15
617.14	801.52
617.34	823.41
617.539	801.71
617.738	791.64
617.938	897.23
618.137	803.65
618.336	757.34
618.535	876.3
618.734	813.72
618.934	835.03
619.133	811.59
619.332	850.34
619.531	771.29
619.73	824.57
619.929	858.67
620.128	829.8
620.328	883.86
620.527	794.15
620.726	819.15
620.925	825.35
621.124	761.22
621.323	823.99
621.522	746.49
621.721	779.82
621.92	773.42
622.119	837.36
622.318	784.66
622.517	772.84
622.715	764.12
622.914	732.93
623.113	769.74
623.312	722.66
623.511	789.5
623.71	758.7
623.909	776.52
624.107	845.5
624.306	761.41
624.505	773.23
624.704	741.45
624.902	741.65
625.101	825.35
625.3	795.32
625.499	728.28
625.697	750.56
625.896	718.01
626.095	753.47
626.293	712.2
626.492	717.24
626.69	778.85
626.889	696.31
627.088	795.32
627.286	733.9
627.485	747.27
627.683	731.38
627.882	751.53
628.08	677.71
628.279	696.51
628.477	776.14
628.676	675.97
628.874	772.65
629.073	711.81
629.271	686.04
629.469	737.39
629.668	702.71
629.866	693.99
630.065	670.93
630.263	762.57
630.461	693.79
630.66	714.33
630.858	737.58
631.056	766.45
631.254	749.59
631.453	694.37
631.651	748.43
631.849	728.86
632.047	740.68
632.245	702.12
632.444	748.24
632.642	727.5
632.84	705.61
633.038	716.07
633.236	685.46
633.434	692.24
633.632	705.42
633.83	680.23
634.028	727.7
634.227	716.07
634.425	797.83
634.623	713.36
634.821	745.91
635.019	742.23
635.216	690.5
635.414	746.3
635.612	719.75
635.81	733.9
636.008	781.17
636.206	719.95
636.404	754.05
636.602	669.96
636.8	729.44
636.997	738.74
637.195	745.72
637.393	707.35
637.591	757.92
637.789	742.42
637.986	696.31
638.184	739.32
638.382	756.76
638.58	759.09
638.777	771.87
638.975	719.37
639.173	745.72
639.37	710.65
639.568	731.38
639.765	737.58
639.963	732.15
640.161	763.54
640.358	752.69
640.556	700.57
640.753	683.33
640.951	687.59
641.148	731.57
641.346	687.4
641.543	675.77
641.741	737.19
641.938	676.55
642.136	692.44
642.333	654.46
642.531	759.67
642.728	772.07
642.925	710.84
643.123	686.43
643.32	716.85
643.517	674.61
643.715	727.89
643.912	694.57
644.109	685.66
644.306	691.66
644.504	646.91
644.701	693.79
644.898	719.17
645.095	641.48
645.293	673.64
645.49	706.58
645.687	697.47
645.884	711.04
646.081	622.3
646.278	662.79
646.475	662.41
646.672	645.16
646.87	678.87
647.067	685.85
647.264	669.96
647.461	617.46
647.658	596.34
647.855	676.94
648.052	638.77
648.249	566.11
648.446	618.43
648.642	626.56
648.839	611.64
649.036	614.74
649.233	590.33
649.43	604.28
649.627	584.52
649.824	618.81
650.021	587.81
650.217	573.86
650.414	590.53
650.611	649.81
650.808	644.39
651.004	617.07
651.201	642.06
651.398	686.62
651.595	629.86
651.791	601.76
651.988	645.74
652.185	588.78
652.381	631.79
652.578	578.32
652.775	613.58
652.971	606.41
653.168	607.19
653.364	645.55
653.561	556.43
653.757	598.08
653.954	599.24
654.15	557.59
654.347	691.27
654.543	614.55
654.74	582.97
654.936	538.79
655.133	577.54
655.329	604.48
655.525	598.86
655.722	600.79
655.918	541.51
656.115	584.91
656.311	533.18
656.507	509.73
656.704	499.85
656.9	508.57
657.096	521.75
657.292	504.89
657.489	582.39
657.685	585.1
657.881	574.83
658.077	528.91
658.273	521.55
658.47	623.66
658.666	569.6
658.862	602.93
659.058	555.65
659.254	616.1
659.45	564.95
659.646	580.06
659.842	572.89
660.038	591.11
660.234	536.28
660.43	573.67
660.626	629.66
660.822	599.24
661.018	625.01
661.214	567.66
661.41	563.59
661.606	600.41
661.802	609.9
661.998	579.68
662.194	565.34
662.39	611.26
662.586	617.07
662.781	593.04
662.977	600.02
663.173	588.39
663.369	560.69
663.564	589.56
663.76	628.31
663.956	577.54
664.152	600.6
664.347	530.08
664.543	591.49
664.739	549.26
664.934	529.3
665.13	525.43
665.326	579.29
665.521	565.53
665.717	544.22
665.912	542.86
666.108	500.05
666.304	531.63
666.499	545.96
666.695	483.58
666.89	564.95
667.086	600.6
667.281	551.58
667.477	634.51
667.672	564.95
667.867	572.51
668.063	576.77
668.258	510.31
668.454	519.23
668.649	591.69
668.844	549.64
669.04	598.66
669.235	546.93
669.43	521.55
669.626	512.64
669.821	535.89
670.016	494.04
670.211	540.73
670.407	488.03
670.602	510.7
670.797	515.55
670.992	587.04
671.187	507.41
671.382	592.66
671.578	532.79
671.773	536.28
671.968	500.05
672.163	539.57
672.358	586.46
672.553	515.93
672.748	499.85
672.943	605.25
673.138	511.48
673.333	522.91
673.528	488.23
673.723	535.5
673.918	531.43
674.113	475.44
674.308	590.33
674.503	545.19
674.698	565.73
674.892	550.03
675.087	556.62
675.282	532.01
675.477	509.93
675.672	562.04
675.867	484.16
676.061	511.86
676.256	481.83
676.451	487.84
676.646	515.35
676.84	505.08
677.035	458.78
677.23	480.86
677.424	536.28
677.619	511.86
677.814	529.88
678.008	550.03
678.203	463.23
678.397	477.18
678.592	512.25
678.787	550.23
678.981	504.31
679.176	497.72
679.37	507.99
679.565	468.27
679.759	490.55
679.954	523.68
680.148	567.28
680.342	550.03
680.537	526.4
680.731	487.06
680.926	507.02
681.12	508.57
681.314	464.01
681.509	491.52
681.703	502.56
681.897	507.8
682.092	498.3
682.286	499.08
682.48	540.15
682.674	529.5
682.869	496.75
683.063	491.33
683.257	563.98
683.451	465.75
683.645	519.03
683.839	509.73
684.034	497.14
684.228	535.89
684.422	451.41
684.616	454.13
684.81	497.33
685.004	482.61
685.198	484.16
685.392	503.92
685.586	466.91
685.78	510.51
685.974	513.8
686.168	490.75
686.362	571.15
686.556	464.01
686.75	430.1
686.944	433.98
687.138	491.13
687.331	370.23
687.525	422.16
687.719	339.24
687.913	412.67
688.107	390
688.301	391.16
688.494	415.38
688.688	356.09
688.882	346.99
689.076	351.05
689.269	399.88
689.463	446.76
689.657	412.86
689.85	401.82
690.044	385.73
690.238	430.49
690.431	422.35
690.625	380.89
690.818	425.84
691.012	458.39
691.205	469.82
691.399	409.37
691.593	466.53
691.786	512.64
691.98	488.42
692.173	534.73
692.366	492.68
692.56	495.4
692.753	534.14
692.947	474.28
693.14	510.51
693.333	522.91
693.527	441.53
693.72	496.75
693.914	494.43
694.107	492.3
694.3	477.38
694.493	509.54
694.687	534.53
694.88	506.44
695.073	548.87
695.266	527.95
695.46	521.55
695.653	569.21
695.846	555.46
696.039	522.33
696.232	511.28
696.425	548.48
696.618	578.51
696.812	543.06
697.005	635.47
697.198	683.91
697.391	616.68
697.584	593.43
697.777	664.92
697.97	642.84
698.163	640.9
698.356	655.43
698.549	723.63
698.742	698.83
698.935	642.64
699.127	653.88
699.32	630.44
699.513	631.02
699.706	681.78
699.899	675.39
700.092	653.88
700.285	673.26
700.477	595.95
700.67	675.19
700.863	716.27
701.056	777.1
701.248	726.92
701.441	755.02
701.634	722.47
701.826	796.67
702.019	686.04
702.212	763.35
702.404	697.47
702.597	716.07
702.79	734.29
702.982	770.71
703.175	780.59
703.367	794.54
703.56	821.86
703.752	885.21
703.945	823.22
704.137	872.04
704.33	858.09
704.522	866.62
704.715	908.46
704.907	882.11
705.1	900.33
705.292	921.83
705.484	883.08
705.677	924.74
705.869	889.86
706.061	952.25
706.254	980.54
706.446	910.21
706.638	957.29
706.831	1028.78
707.023	963.49
707.215	1042.54
707.407	1032.27
707.599	1024.91
707.792	1047.58
707.984	1034.79
708.176	1080.9
708.368	1021.42
708.56	1037.89
708.752	1060.75
708.944	1067.34
709.136	1116.16
709.329	1093.3
709.521	1179.9
709.713	1153.94
709.905	1129.72
710.097	1223.3
710.289	1136.51
710.481	1197.54
710.672	1187.27
710.864	1226.21
711.056	1234.54
711.248	1220.2
711.44	1240.16
711.632	1217.3
711.824	1234.93
712.016	1319.98
712.207	1293.44
712.399	1281.43
712.591	1356.99
712.783	1316.11
712.975	1315.33
713.166	1320.95
713.358	1328.9
713.55	1389.73
713.741	1368.61
713.933	1381.4
714.125	1388.57
714.316	1349.43
714.508	1465.68
714.7	1419.96
714.891	1392.83
715.083	1476.34
715.274	1408.91
715.466	1424.61
715.657	1450.18
715.849	1382.18
716.04	1425.38
716.232	1410.66
716.423	1463.94
716.615	1399.03
716.806	1328.7
716.998	1365.51
717.189	1315.14
717.381	1255.27
717.572	1231.63
717.763	1247.91
717.955	1226.21
718.146	1231.05
718.337	1170.41
718.528	1170.99
718.72	1143.09
718.911	1187.07
719.102	1122.75
719.293	1211.68
719.485	1180.68
719.676	1162.66
719.867	1130.31
720.058	1142.9
720.249	1142.51
720.44	1157.24
720.632	1249.46
720.823	1273.87
721.014	1334.51
721.205	1332.77
721.396	1403.88
721.587	1483.31
721.778	1498.04
721.969	1518.19
722.16	1561.01
722.351	1567.79
722.542	1689.65
722.733	1673.57
722.924	1569.92
723.115	1664.85
723.305	1679.38
723.496	1640.05
723.687	1543.37
723.878	1598.59
724.069	1614.09
724.26	1586.77
724.45	1555.58
724.641	1573.21
724.832	1563.33
725.023	1583.48
725.213	1565.46
725.404	1542.41
725.595	1556.16
725.785	1524.97
725.976	1575.92
726.167	1609.05
726.357	1610.8
726.548	1691.59
726.739	1622.81
726.929	1663.11
727.12	1730.92
727.31	1740.42
727.501	1663.69
727.691	1735.77
727.882	1720.07
728.072	1733.63
728.263	1696.24
728.453	1787.69
728.644	1796.99
728.834	1757.66
729.024	1769.28
729.215	1732.67
729.405	1784.2
729.596	1860.93
729.786	1849.88
729.976	1879.33
730.167	1914.59
730.357	1856.86
730.547	1873.13
730.737	1923.51
730.928	1967.68
731.118	1980.27
731.308	1912.27
731.498	1945.98
731.688	1995.58
731.879	2006.82
732.069	2052.93
732.259	2057.58
732.449	2097.69
732.639	2184.29
732.829	2168.02
733.019	2223.43
733.209	2284.65
733.399	2253.85
733.589	2357.89
733.779	2373.39
733.969	2360.6
734.159	2398.19
734.349	2449.72
734.539	2467.35
734.729	2482.47
734.919	2492.54
735.109	2546.4
735.299	2524.12
735.488	2536.72
735.678	2551.05
735.868	2522.19
736.058	2565.78
736.248	2538.27
736.437	2480.14
736.627	2484.6
736.817	2575.08
737.007	2582.83
737.196	2622.55
737.386	2594.45
737.576	2581.08
737.765	2637.85
737.955	2607.24
738.144	2736.08
738.334	2663.43
738.524	2639.79
738.713	2653.93
738.903	2664.01
739.092	2726.01
739.282	2699.46
739.471	2708.57
739.661	2678.54
739.85	2769.21
740.04	2784.33
740.229	2790.91
740.419	2807.57
740.608	2834.89
740.797	2838.77
740.987	2885.85
741.176	2871.12
741.365	2829.27
741.555	2790.91
741.744	2882.94
741.933	2865.51
742.123	2863.76
742.312	2901.74
742.501	2921.5
742.69	2937
742.88	2834.31
743.069	2950.75
743.258	2921.3
743.447	2930.22
743.636	2969.16
743.825	2980.2
744.014	2966.45
744.204	2951.53
744.393	2915.69
744.582	2987.37
744.771	3039.49
744.96	2998.03
745.149	3051.31
745.338	2971.68
745.527	3030.97
745.716	3013.72
745.905	3005
746.094	3054.22
746.283	3023.02
746.471	3035.62
746.66	3073.98
746.849	3078.82
747.038	3128.81
747.227	3024.38
747.416	3099.16
747.604	3037.94
747.793	3050.34
747.982	3049.37
748.171	3068.55
748.359	3025.15
748.548	3125.51
748.737	3066.42
748.926	3043.56
749.114	3002.68
749.303	3090.83
749.491	3040.85
749.68	2991.63
749.869	3060.61
750.057	3031.93
750.246	3031.93
750.434	3051.31
750.623	3034.65
750.811	3025.73
751	3061.38
751.188	3018.57
751.377	3030.77
751.565	3013.92
751.754	2985.24
751.942	3015.27
752.131	3045.3
752.319	2988.53
752.507	2969.94
752.696	3056.93
752.884	3036.78
753.072	2991.44
753.261	3052.86
753.449	2999
753.637	2958.7
753.825	3085.6
754.014	2990.08
754.202	3023.02
754.39	3056.35
754.578	3044.33
754.766	2989.31
754.955	2981.17
755.143	3085.41
755.331	3017.02
755.519	2954.82
755.707	2980.98
755.895	2977.3
756.083	2977.3
756.271	2964.12
756.459	2968.19
756.647	2990.08
756.835	2923.05
757.023	2954.24
757.211	2937.97
757.399	2919.75
757.587	2934.87
757.775	2890.31
757.963	2893.79
758.151	2978.85
758.339	2895.54
758.526	2856.98
758.714	2893.21
758.902	2793.24
759.09	2701.79
759.278	2559.97
759.465	2380.75
759.653	2059.71
759.841	1870.42
760.028	1593.75
760.216	1390.9
760.404	1290.73
760.591	1070.63
760.779	915.05
760.967	801.13
761.154	648.84
761.342	707.16
761.529	664.15
761.717	739.9
761.905	728.67
762.092	763.15
762.28	744.75
762.467	755.21
762.655	690.31
762.842	712.78
763.029	693.41
763.217	722.66
763.404	702.71
763.592	728.86
763.779	696.89
763.966	772.26
764.154	778.65
764.341	814.69
764.528	818.57
764.716	885.99
764.903	941.79
765.09	991.19
765.277	1033.04
765.465	1173.7
765.652	1205.48
765.839	1276.58
766.026	1415.89
766.213	1423.64
766.4	1553.84
766.588	1703.02
766.775	1680.35
766.962	1790.98
767.149	1843.29
767.336	1969.23
767.523	1974.07
767.71	2075.02
767.897	2120.35
768.084	2240.86
768.271	2267.21
768.458	2341.42
768.645	2343.16
768.832	2335.61
769.019	2368.16
769.206	2410.59
769.392	2447.01
769.579	2558.61
769.766	2501.07
769.953	2534.59
770.14	2544.47
770.327	2528.97
770.513	2632.62
770.7	2702.56
770.887	2595.03
771.073	2643.28
771.26	2604.14
771.447	2594.26
771.634	2609.76
771.82	2674.28
772.007	2561.13
772.193	2651.22
772.38	2689.78
772.567	2623.71
772.753	2638.63
772.94	2696.17
773.126	2720
773.313	2655.29
773.499	2655.48
773.686	2655.48
773.872	2613.63
774.059	2641.34
774.245	2582.63
774.432	2614.6
774.618	2534
774.804	2631.65
774.991	2515.99
775.177	2613.63
775.363	2584.38
775.55	2609.57
775.736	2551.25
775.922	2578.95
776.109	2606.66
776.295	2554.15
776.481	2550.67
776.667	2606.66
776.853	2564.42
777.04	2565.58
777.226	2562.1
777.412	2618.48
777.598	2527.42
777.784	2548.53
777.97	2512.89
778.156	2541.95
778.342	2548.73
778.528	2500.1
778.715	2489.83
778.901	2487.31
779.087	2521.02
779.272	2467.94
779.458	2484.79
779.644	2513.66
779.83	2449.14
780.016	2568.88
780.202	2479.95
780.388	2468.71
780.574	2419.31
780.76	2450.31
780.946	2481.11
781.131	2472.97
781.317	2437.52
781.503	2397.02
781.689	2447.79
781.874	2533.62
782.06	2407.49
782.246	2450.5
782.432	2419.11
782.617	2460.77
782.803	2493.9
782.989	2368.35
783.174	2408.84
783.36	2340.45
783.545	2379.97
783.731	2331.34
783.916	2289.69
784.102	2371.64
784.288	2332.51
784.473	2361.76
784.659	2262.76
784.844	2367.57
785.029	2320.88
785.215	2298.6
785.4	2264.31
785.586	2360.41
785.771	2271.67
785.956	2317.01
786.142	2289.49
786.327	2298.79
786.512	2276.13
786.698	2278.45
786.883	2234.86
787.068	2229.82
787.254	2279.81
787.439	2243.38
787.624	2224.4
787.809	2234.08
787.994	2191.46
788.18	2283.1
788.365	2190.68
788.55	2228.27
788.735	2177.12
788.92	2189.72
789.105	2152.9
789.29	2211.8
789.475	2166.85
789.66	2150.38
789.845	2166.08
790.03	2111.25
790.215	2147.28
790.4	2173.25
790.585	2159.49
790.77	2144.38
790.955	2046.15
791.14	2110.67
791.325	2212.58
791.51	2032.59
791.695	2119.38
791.879	2085.67
792.064	2048.86
792.249	2118.8
792.434	2089.94
792.618	2092.65
792.803	2123.84
792.988	2116.09
793.173	2084.7
793.357	2112.22
793.542	2068.62
793.727	2121.52
793.911	2115.51
794.096	2121.9
794.281	2141.86
794.465	2154.84
794.65	2115.7
794.834	2153.29
795.019	2192.62
795.203	2184.48
795.388	2178.28
795.572	2163.17
795.757	2126.17
795.941	2125.39
796.126	2147.67
796.31	2076.57
796.494	2127.13
796.679	2098.07
796.863	2073.27
797.048	2154.45
797.232	2156.78
797.416	2118.61
797.601	2106.02
797.785	2213.16
797.969	2150.97
798.153	2121.13
798.338	2146.7
798.522	2178.87
798.706	2192.23
798.89	2183.52
799.074	2243.19
799.258	2230.4
799.443	2176.93
799.627	2186.81
799.811	2205.99
799.995	2159.49
800.179	2161.62
800.363	2149.61
800.547	2163.75
800.731	2174.41
800.915	2079.28
801.099	2121.9
801.283	2129.65
801.467	2109.31
801.651	2138.76
801.835	2211.8
802.019	2118.03
802.202	2132.95
802.386	2104.47
802.57	2132.95
802.754	2096.72
802.938	2097.69
803.121	2112.8
803.305	2176.54
803.489	2124.42
803.673	2151.74
803.856	2155.03
804.04	2115.51
804.224	2126.75
804.407	2125
804.591	2109.7
804.775	2125.97
804.958	2126.94
805.142	2251.52
805.326	2150.97
805.509	2144.77
805.693	2165.3
805.876	2182.93
806.06	2141.28
806.243	2175.18
806.427	2192.62
806.61	2219.55
806.794	2161.43
806.977	2173.83
807.16	2172.08
807.344	2168.21
807.527	2163.95
807.71	2119.58
807.894	2152.52
808.077	2183.32
808.26	2121.13
808.444	2102.92
808.627	2165.11
808.81	2109.31
808.993	2020.19
809.177	2081.41
809.36	2068.82
809.543	2069.01
809.726	2015.34
809.909	2026.58
810.092	2026.39
810.276	1995.97
810.459	2003.14
810.642	1995
810.825	1985.51
811.008	1989.77
811.191	1864.22
811.374	1907.23
811.557	1921.57
811.74	1996.36
811.923	1870.03
812.106	1889.21
812.289	1840
812.472	1852.4
812.654	1836.51
812.837	1809.2
813.02	1780.91
813.203	1769.09
813.386	1665.82
813.569	1651.68
813.751	1604.21
813.934	1645.87
814.117	1660.98
814.3	1592
814.482	1557.32
814.665	1513.34
814.848	1505.59
815.03	1455.03
815.213	1456.19
815.396	1472.66
815.578	1414.92
815.761	1399.03
815.943	1486.22
816.126	1387.6
816.309	1346.14
816.491	1321.34
816.674	1254.88
816.856	1344.2
817.039	1280.27
817.221	1364.55
817.403	1350.6
817.586	1320.56
817.768	1329.86
817.951	1258.95
818.133	1243.26
818.315	1287.24
818.498	1326.38
818.68	1373.07
818.862	1339.75
819.045	1368.03
819.227	1339.16
819.409	1345.56
819.591	1383.34
819.774	1319.4
819.956	1324.25
820.138	1416.28
820.32	1403.1
820.502	1450.76
820.684	1499.2
820.866	1455.22
821.048	1499.01
821.231	1518.38
821.413	1507.34
821.595	1511.41
821.777	1531.75
821.959	1497.26
822.141	1559.65
822.323	1449.02
822.505	1400.97
822.686	1357.18
822.868	1277.55
823.05	1199.28
823.232	1197.34
823.414	1126.24
823.596	1211.29
823.778	1190.95
823.96	1190.95
824.141	1234.35
824.323	1239
824.505	1277.94
824.687	1303.32
824.868	1341.88
825.05	1455.03
825.232	1451.54
825.413	1542.99
825.595	1488.54
825.777	1419.38
825.958	1480.02
826.14	1446.11
826.321	1450.76
826.503	1455.41
826.685	1472.46
826.866	1515.09
827.048	1460.45
827.229	1405.81
827.411	1420.15
827.592	1380.05
827.773	1355.83
827.955	1308.75
828.136	1325.21
828.318	1323.86
828.499	1365.13
828.68	1283.95
828.862	1347.69
829.043	1369.2
829.224	1293.83
829.406	1282.4
829.587	1289.18
829.768	1296.73
829.949	1324.83
830.131	1315.53
830.312	1366.48
830.493	1344.2
830.674	1335.87
830.855	1291.31
831.036	1339.36
831.218	1360.67
831.399	1383.53
831.58	1337.23
831.761	1348.66
831.942	1339.16
832.123	1313.2
832.304	1262.83
832.485	1288.4
832.666	1332.58
832.847	1347.69
833.028	1313.2
833.209	1309.33
833.389	1300.03
833.57	1272.52
833.751	1272.13
833.932	1331.03
834.113	1288.98
834.294	1272.71
834.475	1346.33
834.655	1363.19
834.836	1347.11
835.017	1394.96
835.198	1283.56
835.378	1364.16
835.559	1384.89
835.74	1337.81
835.92	1323.66
836.101	1317.27
836.281	1382.18
836.462	1342.07
836.643	1412.98
836.823	1395.16
837.004	1380.05
837.184	1433.13
837.365	1432.74
837.545	1426.54
837.726	1370.36
837.906	1442.04
838.087	1407.75
838.267	1375.59
838.448	1363.19
838.628	1359.31
838.808	1358.73
838.989	1424.8
839.169	1351.18
839.349	1397.87
839.53	1444.76
839.71	1412.59
839.89	1353.5
840.07	1419.76
840.251	1347.69
840.431	1412.4
840.611	1378.5
840.791	1343.81
840.971	1424.22
841.151	1360.67
841.332	1354.08
841.512	1413.76
841.692	1324.25
841.872	1386.63
842.052	1374.04
842.232	1403.49
842.412	1321.73
842.592	1343.62
842.772	1374.81
842.952	1400.2
843.132	1359.12
843.312	1348.27
843.492	1327.15
843.672	1357.76
843.851	1284.14
844.031	1339.94
844.211	1344.98
844.391	1287.05
844.571	1348.85
844.751	1350.6
844.93	1332.58
845.11	1301.77
845.29	1349.63
845.47	1395.93
845.649	1323.86
845.829	1352.92
846.009	1319.01
846.188	1340.71
846.368	1357.76
846.547	1324.83
846.727	1361.06
846.907	1319.4
847.086	1352.92
847.266	1371.33
847.445	1322.89
847.625	1322.11
847.804	1293.44
847.984	1316.5
848.163	1286.27
848.343	1291.5
848.522	1313.4
848.701	1315.53
848.881	1279.1
849.06	1302.74
849.239	1296.54
849.419	1305.84
849.598	1234.73
849.777	1232.6
849.957	1245.39
850.136	1171.38
850.315	1188.82
850.494	1185.14
850.674	1178.74
850.853	1230.09
851.032	1210.13
851.211	1260.89
851.39	1231.25
851.569	1152
851.748	1169.25
851.927	1231.83
852.107	1215.17
852.286	1161.5
852.465	1182.04
852.644	1244.62
852.823	1227.37
853.002	1207.8
853.181	1166.15
853.359	1239.38
853.538	1139.99
853.717	1261.86
853.896	1122.36
854.075	1090.01
854.254	1075.47
854.433	1002.82
854.611	1052.23
854.79	987.71
854.969	1066.76
855.148	1100.27
855.327	1020.06
855.505	1075.86
855.684	1064.82
855.863	1121.78
856.041	1070.44
856.22	1105.7
856.399	1059.78
856.577	1178.94
856.756	1165.76
856.934	1274.45
857.113	1255.47
857.291	1156.85
857.47	1148.71
857.648	1173.51
857.827	1199.86
858.005	1202.19
858.184	1134.76
858.362	1247.33
858.541	1164.4
858.719	1153.94
858.898	1151.42
859.076	1127.01
859.254	1204.32
859.433	1136.89
859.611	1126.82
859.789	1100.47
859.967	1187.85
860.146	1181.45
860.324	1101.82
860.502	1111.51
860.68	1077.02
860.859	1106.09
861.037	1093.49
861.215	1108.02
861.393	1103.57
861.571	1112.48
861.749	1109.19
861.927	1125.07
862.105	1122.75
862.283	1109.38
862.461	1083.03
862.639	1060.94
862.817	1084.58
862.995	1091.94
863.173	1096.79
863.351	1086.91
863.529	1095.04
863.707	1123.52
863.885	1068.31
864.063	1036.34
864.241	1062.88
864.418	1111.12
864.596	1063.66
864.774	1027.81
864.952	1052.42
865.129	1065.79
865.307	1036.14
865.485	975.89
865.663	1061.52
865.84	972.98
866.018	1024.52
866.196	899.36
866.373	943.15
866.551	910.98
866.728	865.45
866.906	918.15
867.084	945.86
867.261	957.29
867.439	980.93
867.616	987.51
867.794	993.71
867.971	973.76
868.149	970.66
868.326	1026.46
868.503	1009.41
868.681	976.47
868.858	983.06
869.035	970.66
869.213	1024.52
869.39	983.44
869.567	1044.86
869.745	982.48
869.922	980.73
870.099	998.56
870.276	1010.38
870.454	984.41
870.631	995.46
870.808	972.21
870.985	1009.21
871.162	1042.15
871.339	1009.6
871.517	919.51
871.694	940.24
871.871	946.25
872.048	935.78
872.225	955.93
872.402	980.15
872.579	922.8
872.756	994.49
872.933	935.59
873.11	933.65
873.287	972.4
873.463	942.37
873.64	921.06
873.817	949.93
873.994	948.57
874.171	923.19
874.348	939.27
874.524	894.51
874.701	961.36
874.878	886.38
875.055	928.81
875.231	910.98
875.408	927.26
875.585	870.1
875.762	934.23
875.938	908.85
876.115	893.93
876.291	875.33
876.468	885.8
876.645	858.28
876.821	861.58
876.998	923.19
877.174	930.16
877.351	867.58
877.527	870.68
877.704	881.34
877.88	876.3
878.057	857.51
878.233	938.88
878.409	882.7
878.586	884.25
878.762	864.1
878.938	866.42
879.115	806.17
879.291	890.06
879.467	809.85
879.644	836
879.82	874.95
879.996	820.7
880.172	805.39
880.349	834.65
880.525	887.93
880.701	794.35
880.877	804.42
881.053	826.9
881.229	869.52
881.405	865.65
881.581	792.99
881.757	816.43
881.933	857.7
882.109	847.43
882.285	837.75
882.461	778.27
882.637	813.53
882.813	810.82
882.989	836.97
883.165	854.22
883.341	794.15
883.517	863.52
883.693	834.84
883.869	862.74
884.044	777.88
884.22	867
884.396	874.95
884.572	849.76
884.747	851.12
884.923	845.88
885.099	849.57
885.275	883.28
885.45	831.55
885.626	820.12
885.801	785.82
885.977	824.57
886.153	749.59
886.328	825.15
886.504	772.65
886.679	814.11
886.855	806.36
887.03	825.54
887.206	865.07
887.381	829.22
887.557	854.99
887.732	829.8
887.908	850.73
888.083	847.63
888.258	815.66
888.434	825.35
888.609	823.99
888.784	848.02
888.96	773.04
889.135	804.62
889.31	772.07
889.485	835.62
889.661	821.08
889.836	831.74
890.011	794.15
890.186	808.68
890.361	797.25
890.537	831.55
890.712	836.2
890.887	831.16
891.062	817.98
891.237	880.57
891.412	785.24
891.587	808.1
891.762	813.72
891.937	879.4
892.112	803.26
892.287	798.22
892.462	762.38
892.637	768.77
892.812	748.43
892.987	725.95
893.161	738.74
893.336	734.67
893.511	738.94
893.686	751.14
893.861	749.2
894.035	762.38
894.21	720.92
894.385	676.94
894.56	729.83
894.734	692.05
894.909	682.56
895.084	671.51
895.258	664.15
895.433	674.22
895.608	659.11
895.782	612.42
895.957	637.41
896.131	624.82
896.306	593.04
896.48	581.81
896.655	596.34
896.829	561.66
897.004	536.66
897.178	549.84
897.353	523.49
897.527	572.51
897.701	556.43
897.876	497.14
898.05	577.93
898.224	559.53
898.399	613.97
898.573	558.36
898.747	462.26
898.921	500.24
899.096	448.12
899.27	471.56
899.444	462.07
899.618	482.41
899.792	495.4
899.967	484.35
900.141	498.5
900.315	449.48
900.489	481.64
900.663	507.41
900.837	495.59
901.011	436.88
901.185	534.73
901.359	474.66
901.533	474.08
901.707	479.51
901.881	472.15
902.055	431.85
902.229	461.1
902.403	531.24
902.576	476.02
902.75	487.06
902.924	576.19
903.098	517.48
903.272	569.21
903.446	593.24
903.619	554.49
903.793	613
903.967	569.99
904.14	616.88
904.314	606.61
904.488	597.69
904.661	618.23
904.835	614.16
905.009	638.57
905.182	678.29
905.356	636.44
905.529	623.07
905.703	599.83
905.876	583.36
906.05	565.73
906.223	534.34
906.397	503.92
906.57	490.75
906.744	458.97
906.917	464.4
907.09	466.33
907.264	472.53
907.437	459.94
907.61	424.1
907.784	452.38
907.957	461.3
908.13	413.83
908.304	476.6
908.477	421.97
908.65	420.42
908.823	391.35
908.996	487.26
909.17	401.43
909.343	402.01
909.516	455.29
909.689	448.9
909.862	394.65
910.035	415.96
910.208	346.99
910.381	378.57
910.554	481.25
910.727	393.87
910.9	404.72
911.073	398.13
911.246	469.63
911.419	439.98
911.592	447.73
911.765	426.23
911.938	399.88
912.11	433.2
912.283	403.37
912.456	446.57
912.629	426.03
912.802	390.97
912.974	347.76
913.147	361.9
913.32	293.7
913.493	331.29
913.665	345.82
913.838	369.27
914.01	350.86
914.183	358.8
914.356	384.38
914.528	402.78
914.701	435.53
914.873	411.5
915.046	357.25
915.218	314.05
915.391	283.82
915.563	287.31
915.736	363.45
915.908	333.62
916.081	389.22
916.253	354.15
916.425	353.38
916.598	371.78
916.77	346.6
916.942	328.19
917.115	267.55
917.287	354.15
917.459	318.89
917.632	271.04
917.804	261.93
917.976	337.88
918.148	351.25
918.32	352.02
918.493	398.91
918.665	402.4
918.837	340.2
919.009	403.75
919.181	427
919.353	393.29
919.525	375.47
919.697	399.49
919.869	363.26
920.041	431.85
920.213	468.66
920.385	436.11
920.557	390.58
920.729	393.87
920.901	371.4
921.073	403.75
921.244	350.47
921.416	415.96
921.588	381.47
921.76	366.75
921.932	468.27
922.103	375.08
922.275	371.2
922.447	398.91
922.619	330.9
922.79	353.77
922.962	357.25
923.134	405.11
923.305	334.97
923.477	337.3
923.648	304.94
923.82	352.99
923.991	277.82
924.163	308.24
924.335	343.69
924.506	293.9
924.677	373.33
924.849	322.96
925.02	336.14
925.192	346.21
925.363	319.28
925.535	334.97
925.706	314.44
925.877	379.73
926.049	320.44
926.22	313.27
926.391	319.47
926.562	374.88
926.734	299.13
926.905	372.75
927.076	258.83
927.247	308.04
927.419	266.97
927.59	288.28
927.761	282.85
927.932	260.77
928.103	257.09
928.274	240.23
928.445	194.31
928.616	242.56
928.787	232.67
928.958	262.12
929.129	251.86
929.3	213.3
929.471	191.99
929.642	145.49
929.813	131.34
929.984	204.39
930.155	127.47
930.326	164.28
930.496	135.61
930.667	64.31
930.838	167.38
931.009	131.15
931.18	128.44
931.35	121.46
931.521	115.26
931.692	108.29
931.863	32.92
932.033	112.16
932.204	94.15
932.374	83.68
932.545	44.16
932.716	111
932.886	99.76
933.057	38.15
933.227	53.26
933.398	142.97
933.568	58.5
933.739	10.64
933.909	31.76
934.08	74.19
934.25	-7.38
934.421	30.79
934.591	78.84
934.761	12.77
934.932	-8.15
935.102	34.86
935.272	25.75
935.443	23.81
935.613	45.32
935.783	40.48
935.953	-8.15
936.123	181.14
936.294	16.26
936.464	49.58
936.634	16.65
936.804	3.47
936.974	-19.2
937.144	20.52
937.314	21.68
937.484	15.29
937.655	13.74
937.825	81.36
937.995	5.41
938.165	82.13
938.334	49
938.504	40.48
938.674	46.87
938.844	68.57
939.014	99.57
939.184	64.7
939.354	104.41
939.524	126.5
939.694	68.96
939.863	71.67
940.033	142.58
940.203	98.99
940.373	75.93
940.542	98.99
940.712	61.21
940.882	94.34
941.051	129.6
941.221	105.19
941.391	122.82
941.56	42.03
941.73	32.53
941.899	175.91
942.069	74.38
942.238	91.43
942.408	43.19
942.577	107.32
942.747	82.52
942.916	25.75
943.086	34.47
943.255	94.92
943.425	105.19
943.594	53.85
943.763	-2.34
943.933	12.77
944.102	-14.16
944.271	61.6
944.441	76.32
944.61	30.98
944.779	50.94
944.948	141.42
945.117	24.01
945.287	25.75
945.456	-1.95
945.625	24.59
945.794	56.17
945.963	21.49
946.132	67.8
946.301	37.76
946.47	64.89
946.639	-11.45
946.808	16.45
946.977	85.04
947.146	92.79
947.315	46.29
947.484	81.16
947.653	41.06
947.822	35.63
947.991	35.05
948.16	123.01
948.329	118.17
948.498	69.73
948.666	51.71
948.835	106.35
949.004	9.48
949.173	23.04
949.341	60.05
949.51	61.21
949.679	103.83
949.847	85.23
950.016	141.03
950.185	85.81
950.353	34.86
950.522	36.6
950.69	105.19
950.859	3.67
951.028	82.33
951.196	100.93
951.365	67.8
951.533	42.61
951.701	82.33
951.87	89.88
952.038	44.35
952.207	57.33
952.375	132.31
952.543	19.75
952.712	48.81
952.88	44.35
953.048	109.64
953.217	60.43
953.385	40.28
953.553	91.63
953.721	19.16
953.89	55.78
954.058	23.43
954.226	14.71
954.394	18.39
954.562	-1.95
954.73	42.8
954.898	40.48
955.067	93.37
955.235	46.48
955.403	72.64
955.571	122.63
955.739	87.17
955.907	27.11
956.075	37.96
956.243	35.63
956.41	67.99
956.578	20.71
956.746	-5.25
956.914	45.51
957.082	77.48
957.25	75.16
957.418	31.37
957.585	63.73
957.753	83.1
957.921	41.06
958.089	45.32
958.256	61.21
958.424	81.36
958.592	74.96
958.759	66.83
958.927	81.75
959.095	18
959.262	48.81
959.43	71.86
959.597	69.35
959.765	44.16
959.932	43.58
960.1	72.83
960.267	63.92
960.435	45.32
960.602	73.8
960.77	37.96
960.937	23.62
961.104	84.07
961.272	7.35
961.439	44.93
961.606	89.3
961.774	73.61
961.941	41.83
962.108	63.73
962.275	87.95
962.443	125.53
962.61	83.88
962.777	147.04
962.944	80.97
963.111	73.61
963.278	60.82
963.446	71.48
963.613	67.6
963.78	69.93
963.947	62.56
964.114	68.18
964.281	149.17
964.448	73.03
964.615	59.08
964.782	77.48
964.949	97.83
965.116	108.68
965.282	117.01
965.449	55.2
965.616	49.78
965.783	82.33
965.95	76.13
966.117	29.24
966.283	80.78
966.45	82.52
966.617	88.91
966.784	106.54
966.95	115.46
967.117	105.77
967.284	50.75
967.45	20.13
967.617	117.98
967.784	109.64
967.95	118.17
968.117	82.33
968.283	101.51
968.45	172.61
968.616	107.9
968.783	110.23
968.949	86.98
969.116	104.8
969.282	77.29
969.449	96.86
969.615	88.14
969.781	64.11
969.948	89.3
970.114	34.08
970.28	123.4
970.447	73.61
970.613	146.65
970.779	66.25
970.945	103.64
971.112	112.55
971.278	101.89
971.444	112.55
971.61	112.16
971.776	79.23
971.942	98.99
972.108	111.58
972.275	69.93
972.441	113.13
972.607	147.43
972.773	71.48
972.939	98.21
973.105	86.78
973.271	60.63
973.437	92.4
973.602	67.02
973.768	100.73
973.934	71.09
974.1	70.12
974.266	38.35
974.432	91.43
974.598	80.58
974.763	98.6
974.929	84.65
975.095	114.49
975.261	32.73
975.426	50.75
975.592	56.36
975.758	130.96
975.923	22.65
976.089	49.97
976.255	116.23
976.42	92.4
976.586	120.11
976.751	82.52
976.917	156.34
977.082	97.44
977.248	37.76
977.413	22.07
977.579	38.54
977.744	73.41
977.91	36.6
978.075	47.65
978.24	98.6
978.406	76.32
978.571	60.82
978.736	61.21
978.902	108.29
979.067	42.61
979.232	16.45
979.397	75.16
979.563	118.17
979.728	38.35
979.893	58.69
980.058	55.59
980.223	100.15
980.388	81.94
980.554	83.88
980.719	67.41
980.884	86.4
981.049	103.44
981.214	43.58
981.379	71.09
981.544	52.3
981.709	85.23
981.874	64.11
982.039	67.02
982.204	96.28
982.368	66.63
982.533	55.4
982.698	105.19
982.863	117.78
983.028	59.27
983.193	80.39
983.357	89.88
983.522	84.07
983.687	56.17
983.852	67.41
984.016	66.44
984.181	87.36
984.346	82.13
984.51	76.71
984.675	71.28
984.839	79.81
985.004	80.58
985.168	109.84
985.333	96.86
985.498	73.03
985.662	87.75
985.827	80.97
985.991	81.75
986.155	28.85
986.32	100.93
986.484	134.64
986.649	92.4
986.813	33.11
986.977	80
987.142	103.64
987.306	52.3
987.47	54.43
987.634	79.03
987.799	67.41
987.963	63.73
988.127	84.07
988.291	152.27
988.455	76.9
988.62	80
988.784	94.92
988.948	74.58
989.112	34.47
989.276	84.26
989.44	82.33
989.604	28.27
989.768	54.81
989.932	134.83
990.096	55.01
990.26	39.7
990.424	21.49
990.588	59.85
990.752	144.33
990.915	113.91
991.079	59.08
991.243	44.93
991.407	88.14
991.571	67.21
991.734	92.4
991.898	54.43
992.062	150.91
992.226	82.13
992.389	48.23
992.553	32.73
992.717	51.91
992.88	54.62
993.044	65.66
993.207	54.81
993.371	81.55
993.535	37.57
993.698	81.16
993.862	99.76
994.025	98.02
994.189	61.6
994.352	71.86
994.515	57.33
994.679	91.24
994.842	65.47
995.006	98.41
995.169	38.93
995.332	48.03
995.496	90.08
995.659	11.8
995.822	71.28
995.985	66.44
996.149	103.64
996.312	40.48
996.475	117.78
996.638	44.74
996.801	75.93
996.964	117.01
997.128	54.23
997.291	45.13
997.454	67.6
997.617	-3.7
997.78	98.02
997.943	42.8
998.106	102.86
998.269	32.53
998.432	63.15
998.595	55.59
998.758	25.36
998.92	39.7
999.083	3.47
999.246	50.16
999.409	13.35
999.572	16.06
999.735	30.79
999.897	60.05
1000.06	28.27
1000.223	27.69
1000.386	55.4
1000.548	80.39
1000.711	73.61
1000.874	60.43
1001.036	-8.15
1001.199	75.93
1001.361	40.67
1001.524	49.39
1001.687	81.94
1001.849	9.86
1002.012	63.92
1002.174	52.49
1002.337	77.87
1002.499	9.67
1002.661	110.42
1002.824	33.89
1002.986	24.59
1003.149	40.67
1003.311	23.43
1003.473	94.15
1003.636	43
1003.798	47.06
1003.96	77.29
1004.123	59.27
1004.285	26.33
1004.447	59.08
1004.609	43.77
1004.771	109.06
1004.933	-2.15
1005.096	3.86
1005.258	10.45
1005.42	30.21
1005.582	56.95
1005.744	68.38
1005.906	2.7
1006.068	40.86
1006.23	-1.95
1006.392	-13.19
1006.554	0.37
1006.716	49
1006.878	71.09
1007.04	-0.79
1007.202	15.68
1007.363	52.49
1007.525	72.06
1007.687	38.93
1007.849	72.06
1008.011	-6.02
1008.172	6.38
1008.334	25.56
1008.496	54.81
1008.658	-19.58
1008.819	5.02
1008.981	-4.28
1009.143	38.93
1009.304	44.93
1009.466	31.56
1009.627	103.44
1009.789	130.57
1009.95	34.66
1010.112	26.72
1010.273	46.48
1010.435	-22.1
1010.596	34.28
1010.758	21.1
1010.919	29.24
1011.081	-3.7
1011.242	19.16
1011.403	67.8
1011.565	29.05
1011.726	50.94
1011.887	-13
1012.049	12.96
1012.21	78.45
1012.371	66.05
1012.532	-29.85
1012.693	12.96
1012.855	23.04
1013.016	36.8
1013.177	75.16
1013.338	35.44
1013.499	92.01
1013.66	59.85
1013.821	66.05
1013.982	38.73
1014.143	50.75
1014.304	-4.28
1014.465	54.23
1014.626	33.11
1014.787	38.54
1014.948	117.01
1015.109	-63.18
1015.27	63.73
1015.431	18.97
1015.592	19.36
1015.752	83.1
1015.913	38.93
1016.074	38.35
1016.235	42.03
1016.395	9.48
1016.556	4.83
1016.717	24.4
1016.877	82.33
1017.038	-10.87
1017.199	55.4
1017.359	32.34
1017.52	29.43
1017.681	10.06
1017.841	11.22
1018.002	8.7
1018.162	18.58
1018.323	87.95
1018.483	30.01
1018.644	6.96
1018.804	-7.18
1018.964	-21.13
1019.125	-9.9
1019.285	44.74
1019.446	-0.4
1019.606	-6.02
1019.766	-11.45
1019.926	53.26
1020.087	32.15
1020.247	-7.77
1020.407	59.85
1020.567	41.45
1020.728	-5.25
1020.888	-5.63
1021.048	24.2
1021.208	-6.8
1021.368	7.73
1021.528	53.46
1021.688	44.74
1021.848	54.04
1022.008	17.23
1022.168	10.25
1022.328	39.12
1022.488	38.15
1022.648	-2.34
1022.808	33.11
1022.968	56.95
1023.128	-14.16
1023.288	-31.6
1023.448	9.28
1023.608	10.83
1023.767	38.73
1023.927	3.28
1024.087	-39.35
1024.247	-24.82
1024.406	1.34
1024.566	-6.99
1024.726	-9.12
1024.885	11.22
1025.045	33.7
1025.205	30.4
1025.364	19.75
1025.524	10.06
1025.683	7.54
1025.843	20.13
1026.003	7.93
1026.162	64.31
1026.321	62.76
1026.481	-2.73
1026.64	3.47
1026.8	9.86
1026.959	-0.98
1027.119	17.42
1027.278	10.45
1027.437	-25.59
1027.597	28.66
1027.756	36.99
1027.915	49.78
1028.074	36.8
1028.234	9.67
1028.393	37.18
1028.552	39.7
1028.711	-47.1
1028.87	68.38
1029.03	-21.91
1029.189	45.51
1029.348	-52.52
1029.507	-12.42
1029.666	-20.55
1029.825	-10.28
1029.984	-22.1
1030.143	24.2
1030.302	-10.48
1030.461	-46.52
1030.62	2.12
1030.779	34.08
1030.938	-20.55
1031.097	-30.43
1031.255	16.65
1031.414	71.28
1031.573	47.84
1031.732	-43.42
1031.891	15.48
1032.049	51.13
1032.208	62.76
1032.367	-19.39
1032.525	-0.6
1032.684	17.23
1032.843	10.64
1033.001	-36.44
1033.16	133.28
1033.319	67.21
1033.477	2.5
1033.636	6.57
1033.794	-43.03
1033.953	16.84
1034.111	25.75
1034.27	-14.55
1034.428	24.98
1034.587	-18.81
1034.745	8.7
1034.903	9.48
1035.062	21.1
1035.22	-46.71
1035.378	40.86
1035.537	-31.02
1035.695	19.94
1035.853	-9.9
1036.011	37.57
1036.17	10.45
1036.328	-58.92
1036.486	13.16
1036.644	-7.77
1036.802	-61.05
1036.96	-20.17
1037.119	-3.7
1037.277	0.76
1037.435	-20.75
1037.593	-25.59
1037.751	4.25
1037.909	12.58
1038.067	12.58
