Data from oakcork_FLMT105791__176__17-31-49-057.txt Node

Date: Mon Mar 20 17:31:49 GMT 2023
User: antho
Spectrometer: FLMT10579
Trigger mode: 0
Integration Time (sec): 1.000000E-1
Scans to average: 10
Electric dark correction enabled: true
Nonlinearity correction enabled: false
Boxcar width: 0
XAxis mode: Wavelengths
Number of Pixels in Spectrum: 3648
>>>>>Begin Spectral Data<<<<<
345.248	-166.3
345.464	-166.3
345.681	-166.3
345.898	-139.95
346.114	-157.97
346.331	-26.03
346.548	16.6
346.764	4.39
346.981	19.7
347.197	-19.44
347.414	8.46
347.631	-19.05
347.847	44.69
348.064	-4.52
348.28	7.69
348.497	-16.15
348.713	-16.34
348.93	24.35
349.146	16.79
349.363	-19.44
349.579	6.52
349.796	0.13
350.012	-5.49
350.229	27.84
350.445	18.73
350.661	-31.45
350.878	14.27
351.094	31.13
351.311	19.12
351.527	24.15
351.743	-13.82
351.96	17.95
352.176	44.88
352.392	-8.01
352.609	21.64
352.825	-3.94
353.041	19.89
353.257	-13.82
353.474	-14.01
353.69	17.18
353.906	38.1
354.122	-25.83
354.339	41.98
354.555	-9.17
354.771	-7.23
354.987	63.29
355.203	35.39
355.42	-16.92
355.636	-12.27
355.852	12.92
356.068	6.91
356.284	-34.55
356.5	55.54
356.716	6.33
356.932	-1.61
357.148	40.43
357.364	12.34
357.58	29.58
357.796	62.9
358.012	34.81
358.228	24.15
358.444	-49.08
358.66	50.5
358.876	24.35
359.092	-15.37
359.308	20.67
359.524	34.62
359.74	16.79
359.956	8.27
360.172	24.15
360.388	48.18
360.604	-5.68
360.819	77.05
361.035	-9.36
361.251	29.58
361.467	-24.86
361.683	54.77
361.898	32.68
362.114	58.06
362.33	10.79
362.546	38.1
362.762	-2.58
362.977	13.3
363.193	-2.97
363.409	32.1
363.624	-17.89
363.84	-15.37
364.056	-17.31
364.271	30.93
364.487	33.84
364.703	7.49
364.918	-40.56
365.134	15.63
365.35	-24.28
365.565	91.38
365.781	14.66
365.996	16.79
366.212	39.65
366.427	17.37
366.643	-8.78
366.858	-11.5
367.074	-27.96
367.289	29.19
367.505	96.42
367.72	-22.93
367.936	-8.01
368.151	30.55
368.367	43.72
368.582	28.42
368.798	-1.23
369.013	64.45
369.228	18.73
369.444	18.73
369.659	52.63
369.874	13.3
370.09	37.72
370.305	-60.9
370.52	2.65
370.736	30.35
370.951	0.71
371.166	56.32
371.381	65.62
371.597	31.9
371.812	-20.8
372.027	-5.68
372.242	0.32
372.458	99.33
372.673	18.34
372.888	19.89
373.103	68.33
373.318	97.39
373.533	7.88
373.749	21.64
373.964	-15.37
374.179	59.22
374.394	-14.01
374.609	46.24
374.824	-25.83
375.039	49.73
375.254	-7.43
375.469	64.45
375.684	9.43
375.899	39.07
376.114	-5.3
376.329	7.3
376.544	33.45
376.759	37.72
376.974	12.72
377.189	4
377.404	9.43
377.619	30.93
377.834	-45.6
378.049	-29.71
378.264	-10.72
378.478	15.05
378.693	5.55
378.908	25.12
379.123	-9.95
379.338	48.95
379.553	16.99
379.767	47.21
379.982	13.11
380.197	15.63
380.412	24.93
380.626	30.35
380.841	81.12
381.056	60
381.271	74.72
381.485	11.37
381.7	-19.63
381.915	28.8
382.129	9.82
382.344	16.02
382.559	-8.01
382.773	56.7
382.988	-38.43
383.202	26.67
383.417	-3.36
383.632	99.91
383.846	13.89
384.061	23.77
384.275	0.9
384.49	32.48
384.704	47.98
384.919	12.72
385.133	18.92
385.348	48.76
385.562	-31.26
385.777	42.56
385.991	13.89
386.206	-1.81
386.42	2.26
386.634	43.33
386.849	27.64
387.063	37.33
387.277	0.13
387.492	-1.03
387.706	-9.36
387.92	-29.9
388.135	40.82
388.349	29.58
388.563	7.49
388.778	37.33
388.992	25.51
389.206	24.93
389.42	86.35
389.635	43.33
389.849	51.28
390.063	72.59
390.277	45.66
390.491	94.68
390.706	30.74
390.92	54.77
391.134	37.72
391.348	56.7
391.562	-14.21
391.776	27.45
391.99	12.72
392.205	51.28
392.419	6.14
392.633	-3.16
392.847	81.12
393.061	-9.36
393.275	65.81
393.489	17.18
393.703	50.31
393.917	53.99
394.131	11.17
394.345	22.22
394.559	64.07
394.773	28.61
394.986	45.47
395.2	41.2
395.414	43.92
395.628	16.21
395.842	23.38
396.056	10.2
396.27	-37.85
396.484	13.11
396.697	10.79
396.911	87.7
397.125	69.49
397.339	41.59
397.553	45.85
397.766	80.34
397.98	80.73
398.194	67.94
398.408	11.75
398.621	32.87
398.835	73.95
399.049	46.43
399.262	75.69
399.476	58.64
399.69	67.94
399.903	121.8
400.117	42.95
400.331	66.58
400.544	15.24
400.758	131.88
400.971	71.23
401.185	68.91
401.398	-5.49
401.612	69.88
401.826	79.37
402.039	63.48
402.253	41.59
402.466	83.05
402.68	46.63
402.893	77.63
403.106	55.93
403.32	39.85
403.533	77.43
403.747	38.3
403.96	62.71
404.174	75.5
404.387	9.24
404.6	37.72
404.814	93.32
405.027	76.66
405.24	67.94
405.454	32.87
405.667	103.98
405.88	8.85
406.094	55.35
406.307	77.82
406.52	67.55
406.733	38.1
406.947	13.3
407.16	99.52
407.373	84.02
407.586	52.83
407.799	44.69
408.012	101.85
408.226	80.92
408.439	106.11
408.652	34.23
408.865	79.57
409.078	132.26
409.291	75.88
409.504	20.28
409.717	79.57
409.93	92.35
410.143	62.13
410.357	9.62
410.57	22.41
410.783	65.62
410.996	89.83
411.209	54.18
411.421	106.11
411.634	53.02
411.847	39.07
412.06	54.57
412.273	79.57
412.486	64.65
412.699	154.35
412.912	75.11
413.125	104.95
413.338	73.56
413.55	80.53
413.763	60.38
413.976	66.58
414.189	48.95
414.402	78.79
414.615	110.76
414.827	35
415.04	84.8
415.253	82.47
415.466	109.02
415.678	153.58
415.891	79.18
416.104	70.07
416.316	78.02
416.529	66
416.742	101.27
416.954	115.02
417.167	81.12
417.38	90.61
417.592	107.27
417.805	54.38
418.017	10.4
418.23	107.85
418.442	63.68
418.655	88.48
418.868	91.38
419.08	119.28
419.293	123.74
419.505	80.73
419.718	80.53
419.93	114.05
420.142	79.95
420.355	115.41
420.567	118.51
420.78	116.18
420.992	97.39
421.205	138.08
421.417	51.47
421.629	95.26
421.842	45.85
422.054	51.86
422.266	120.25
422.479	96.23
422.691	63.29
422.903	103.4
423.115	81.12
423.328	73.56
423.54	103.78
423.752	60
423.964	58.64
424.177	128.2
424.389	106.69
424.601	185.74
424.813	128.39
425.025	129.94
425.238	136.33
425.45	71.62
425.662	78.98
425.874	400.22
426.086	96.62
426.298	98.36
426.51	88.48
426.722	90.42
426.934	80.15
427.146	145.05
427.358	46.43
427.57	141.76
427.782	79.57
427.994	117.35
428.206	93.13
428.418	56.9
428.63	107.66
428.842	126.45
429.054	130.13
429.266	129.94
429.478	68.13
429.69	125.29
429.902	54.18
430.114	124.71
430.325	103.4
430.537	71.82
430.749	96.03
430.961	59.8
431.173	96.42
431.384	124.13
431.596	26.09
431.808	98.55
432.02	79.76
432.231	149.7
432.443	140.01
432.655	108.63
432.867	101.85
433.078	134.01
433.29	192.33
433.502	155.51
433.713	141.95
433.925	135.95
434.136	172.76
434.348	89.83
434.56	85.57
434.771	198.91
434.983	95.65
435.194	86.35
435.406	132.65
435.617	174.31
435.829	185.16
436.04	172.37
436.252	184.58
436.463	173.92
436.675	184.77
436.886	141.56
437.098	167.53
437.309	174.31
437.521	110.37
437.732	149.9
437.943	148.15
438.155	151.06
438.366	91
438.578	185.93
438.789	145.25
439	168.88
439.211	115.99
439.423	142.92
439.634	169.46
439.845	170.24
440.057	149.7
440.268	188.45
440.479	121.03
440.69	169.66
440.902	139.05
441.113	161.71
441.324	129.94
441.535	161.71
441.746	211.12
441.957	110.57
442.168	171.98
442.38	221.58
442.591	208.41
442.802	176.83
443.013	155.13
443.224	194.07
443.435	183.8
443.646	170.24
443.857	175.86
444.068	125.29
444.279	144.08
444.49	234.95
444.701	187.48
444.912	281.84
445.123	219.45
445.334	167.33
445.545	212.67
445.756	183.41
445.967	137.11
446.178	213.06
446.388	216.93
446.599	233.79
446.81	221.97
447.021	171.4
447.232	225.84
447.443	250.26
447.653	165.4
447.864	215.58
448.075	210.54
448.286	227.59
448.496	213.64
448.707	241.54
448.918	160.75
449.129	291.33
449.339	189.03
449.55	266.14
449.761	220.61
449.971	249.29
450.182	196.78
450.393	231.08
450.603	212.48
450.814	241.15
451.024	232.82
451.235	269.63
451.446	269.05
451.656	308.38
451.867	222.74
452.077	231.46
452.288	292.11
452.498	274.28
452.709	218.87
452.919	238.63
453.13	215.19
453.34	262.85
453.55	168.11
453.761	250.26
453.971	258.01
454.182	291.91
454.392	244.44
454.602	306.83
454.813	254.33
455.023	272.15
455.233	230.69
455.444	244.44
455.654	172.76
455.864	234.76
456.075	230.69
456.285	221
456.495	214.03
456.705	255.1
456.916	271.38
457.126	296.95
457.336	259.17
457.546	192.33
457.756	221.58
457.967	276.61
458.177	227.98
458.387	228.56
458.597	227.01
458.807	257.62
459.017	238.83
459.227	252
459.437	273.31
459.647	274.67
459.857	288.23
460.068	244.06
460.278	293.66
460.488	269.63
460.698	317.29
460.908	275.44
461.117	226.62
461.327	261.3
461.537	260.91
461.747	276.03
461.957	269.24
462.167	358.95
462.377	309.54
462.587	295.79
462.797	319.81
463.007	268.28
463.216	277.96
463.426	321.56
463.636	313.42
463.846	277.38
464.056	264.21
464.265	320.01
464.475	261.11
464.685	313.81
464.895	329.89
465.104	270.6
465.314	339.19
465.524	264.01
465.733	257.04
465.943	345.58
466.153	357.59
466.362	332.79
466.572	280.87
466.782	266.73
466.991	296.37
467.201	354.11
467.41	221
467.62	313.81
467.829	285.33
468.039	332.02
468.249	287.46
468.458	282.42
468.668	316.32
468.877	343.84
469.086	355.85
469.296	373.29
469.505	296.37
469.715	382
469.924	325.04
470.134	366.31
470.343	389.56
470.552	324.66
470.762	319.62
470.971	302.96
471.18	305.86
471.39	323.88
471.599	299.27
471.808	366.7
472.018	304.7
472.227	387.62
472.436	389.75
472.645	333.96
472.855	300.05
473.064	393.63
473.273	370.77
473.482	403.32
473.691	385.88
473.901	398.09
474.11	329.31
474.319	427.34
474.528	379.68
474.737	401.77
474.946	393.63
475.155	370.96
475.364	421.14
475.573	395.18
475.783	391.69
475.992	394.99
476.201	435.87
476.41	393.05
476.619	368.06
476.828	427.54
477.037	373.87
477.245	400.22
477.454	418.24
477.663	407
477.872	400.8
478.081	475.39
478.29	405.06
478.499	500.19
478.708	442.65
478.917	479.85
479.125	414.94
479.334	447.3
479.543	456.99
479.752	469.19
479.961	462.8
480.169	504.65
480.378	446.33
480.587	573.81
480.796	478.68
481.004	486.63
481.213	490.5
481.422	508.72
481.63	507.55
481.839	505.81
482.048	544.56
482.256	483.14
482.465	516.47
482.674	551.73
482.882	549.98
483.091	582.73
483.299	533.13
483.508	553.47
483.716	528.67
483.925	522.86
484.134	506.58
484.342	456.99
484.551	546.5
484.759	571.3
484.967	537.58
485.176	577.3
485.384	529.45
485.593	577.88
485.801	560.06
486.01	518.79
486.218	506.58
486.426	459.89
486.635	492.83
486.843	474.42
487.051	513.75
487.26	500.58
487.468	522.67
487.676	573.62
487.885	519.76
488.093	530.61
488.301	549.79
488.509	557.15
488.717	583.7
488.926	575.17
489.134	559.67
489.342	599.58
489.55	531.38
489.758	566.06
489.967	554.63
490.175	675.92
490.383	554.83
490.591	635.81
490.799	567.81
491.007	649.38
491.215	610.82
491.423	604.62
491.631	616.63
491.839	623.61
492.047	653.25
492.255	583.89
492.463	558.7
492.671	588.15
492.879	655.58
493.087	610.24
493.295	615.08
493.503	638.91
493.711	651.31
493.919	653.44
494.127	683.67
494.334	672.24
494.542	644.14
494.75	685.61
494.958	647.24
495.166	697.81
495.374	649.18
495.581	658.09
495.789	671.46
495.997	732.88
496.205	678.44
496.412	708.86
496.62	660.61
496.828	673.01
497.035	649.76
497.243	686.38
497.451	693.36
497.658	673.21
497.866	683.86
498.074	751.48
498.281	642.59
498.489	770.86
498.696	686.58
498.904	690.64
499.112	689.87
499.319	771.63
499.527	721.06
499.734	753.61
499.942	674.76
500.149	719.71
500.357	722.03
500.564	671.66
500.771	690.45
500.979	687.35
501.186	690.06
501.394	699.17
501.601	668.75
501.808	726.49
502.016	703.63
502.223	716.41
502.43	697.43
502.638	694.52
502.845	695.29
503.052	774.54
503.26	700.91
503.467	792.17
503.674	716.99
503.881	760.97
504.089	797.01
504.296	735.79
504.503	684.83
504.71	726.49
504.917	709.83
505.125	740.63
505.332	745.47
505.539	720.29
505.746	807.09
505.953	797.01
506.16	785.97
506.367	799.14
506.574	821.42
506.781	809.22
506.988	746.83
507.195	781.12
507.402	770.66
507.609	800.31
507.816	780.74
508.023	767.76
508.23	755.16
508.437	749.16
508.644	789.65
508.851	840.41
509.058	857.46
509.265	806.89
509.472	807.28
509.679	913.84
509.885	811.16
510.092	810.77
510.299	810.96
510.506	821.23
510.713	824.91
510.92	831.11
511.126	861.92
511.333	885.17
511.54	858.82
511.746	868.5
511.953	879.16
512.16	911.52
512.367	849.52
512.573	865.21
512.78	859.79
512.987	878.39
513.193	875.29
513.4	782.09
513.606	823.36
513.813	868.7
514.02	859.4
514.226	914.42
514.433	907.25
514.639	849.52
514.846	848.16
515.052	865.02
515.259	893.89
515.465	889.43
515.672	868.12
515.878	942.32
516.085	922.56
516.291	946
516.497	883.42
516.704	863.85
516.91	812.32
517.117	821.23
517.323	788.49
517.529	799.34
517.736	811.93
517.942	815.61
518.148	868.12
518.354	868.5
518.561	839.64
518.767	880.52
518.973	926.82
519.179	887.3
519.386	907.25
519.592	888.65
519.798	920.23
520.004	985.72
520.21	926.63
520.417	956.47
520.623	1021.37
520.829	1006.06
521.035	991.34
521.241	997.73
521.447	1012.65
521.653	1097.32
521.859	1006.65
522.065	1033.77
522.271	1094.8
522.477	1063.8
522.683	1111.66
522.889	1031.25
523.095	1031.64
523.301	1054.11
523.507	1038.03
523.713	1061.48
523.919	1033.58
524.125	1116.69
524.331	1091.31
524.537	1150.79
524.742	1137.81
524.948	1139.17
525.154	1148.66
525.36	1222.67
525.566	1157.96
525.772	1180.82
525.977	1087.44
526.183	1160.87
526.389	1187.8
526.595	1098.09
526.8	1093.83
527.006	1074.85
527.212	1047.14
527.417	1002.58
527.623	997.15
527.829	1125.22
528.034	1138.01
528.24	1102.94
528.446	1084.73
528.651	1199.42
528.857	1188.96
529.062	1239.53
529.268	1176.76
529.473	1191.09
529.679	1202.72
529.884	1259.87
530.09	1241.86
530.295	1279.64
530.501	1262.59
530.706	1253.48
530.912	1238.95
531.117	1232.17
531.323	1246.7
531.528	1296.49
531.733	1289.9
531.939	1273.63
532.144	1280.99
532.35	1274.79
532.555	1305.02
532.76	1276.54
532.966	1289.9
533.171	1248.06
533.376	1248.25
533.581	1205.04
533.787	1224.03
533.992	1268.98
534.197	1318
534.402	1264.72
534.607	1281.19
534.813	1358.1
535.018	1296.69
535.223	1302.11
535.428	1325.75
535.633	1338.34
535.838	1313.15
536.043	1356.55
536.249	1423.78
536.454	1346.87
536.659	1372.25
536.864	1336.6
537.069	1340.47
537.274	1368.95
537.479	1336.21
537.684	1360.23
537.889	1313.35
538.094	1435.8
538.299	1353.65
538.504	1375.54
538.708	1394.53
538.913	1394.72
539.118	1348.42
539.323	1386.78
539.528	1375.15
539.733	1368.76
539.938	1355.39
540.142	1384.45
540.347	1369.34
540.552	1341.05
540.757	1363.14
540.962	1345.12
541.166	1295.33
541.371	1318
541.576	1370.5
541.781	1265.88
541.985	1370.31
542.19	1371.86
542.395	1429.4
542.599	1468.35
542.804	1421.85
543.008	1424.75
543.213	1405.38
543.418	1331.95
543.622	1402.08
543.827	1359.07
544.031	1484.43
544.236	1456.91
544.44	1393.17
544.645	1502.06
544.849	1389.88
545.054	1443.55
545.258	1510.58
545.463	1497.99
545.667	1400.15
545.872	1501.09
546.076	1450.71
546.281	1442.77
546.485	1409.83
546.689	1460.01
546.894	1463.31
547.098	1440.45
547.302	1400.92
547.507	1455.17
547.711	1473.19
547.915	1497.02
548.119	1399.57
548.324	1456.14
548.528	1476.29
548.732	1448
548.936	1478.42
549.141	1526.28
549.345	1434.63
549.549	1446.65
549.753	1473.38
549.957	1555.92
550.161	1508.65
550.366	1491.01
550.57	1430.76
550.774	1473.38
550.978	1503.41
551.182	1487.72
551.386	1448.58
551.59	1433.47
551.794	1470.86
551.998	1517.17
552.202	1472.03
552.406	1444.32
552.61	1513.49
552.814	1491.98
553.018	1526.66
553.222	1438.12
553.426	1444.51
553.63	1557.08
553.833	1466.99
554.037	1411
554.241	1470.86
554.445	1488.11
554.649	1491.6
554.853	1452.65
555.056	1531.89
555.26	1530.73
555.464	1494.7
555.668	1514.07
555.871	1478.81
556.075	1524.34
556.279	1469.7
556.483	1448.58
556.686	1461.56
556.89	1469.7
557.094	1493.34
557.297	1402.67
557.501	1479.78
557.704	1387.55
557.908	1501.09
558.112	1425.14
558.315	1491.01
558.519	1450.33
558.722	1419.72
558.926	1404.22
559.129	1341.25
559.333	1340.08
559.536	1369.53
559.74	1322.65
559.943	1351.9
560.147	1359.85
560.35	1368.37
560.553	1391.82
560.757	1331.37
560.96	1454.01
561.164	1395.88
561.367	1466.02
561.57	1418.55
561.774	1424.95
561.977	1381.93
562.18	1343.57
562.384	1449.36
562.587	1375.73
562.79	1383.1
562.993	1374.18
563.197	1396.66
563.4	1436.96
563.603	1442.19
563.806	1463.11
564.009	1352.29
564.212	1403.63
564.416	1303.47
564.619	1367.98
564.822	1319.16
565.025	1398.6
565.228	1360.82
565.431	1351.71
565.634	1279.05
565.837	1304.63
566.04	1280.6
566.243	1316.84
566.446	1230.42
566.649	1278.67
566.852	1273.44
567.055	1301.34
567.258	1304.82
567.461	1350.16
567.664	1346.28
567.867	1264.91
568.07	1283.32
568.273	1307.34
568.475	1318.58
568.678	1274.4
568.881	1253.67
569.084	1249.99
569.287	1169.97
569.489	1212.41
569.692	1274.4
569.895	1248.25
570.098	1210.08
570.3	1203.3
570.503	1136.07
570.706	1138.39
570.909	1194.97
571.111	1155.64
571.314	1102.55
571.516	1174.24
571.719	1186.06
571.922	1160.68
572.124	1117.66
572.327	1199.81
572.529	1136.46
572.732	1098.09
572.935	1158.16
573.137	1222.29
573.34	1144.59
573.542	1169.2
573.745	1160.48
573.947	1167.84
574.15	1148.28
574.352	1142.08
574.554	1210.66
574.757	1139.17
574.959	1119.02
575.162	1102.16
575.364	1094.22
575.566	1212.02
575.769	1084.14
575.971	1086.47
576.173	1015.56
576.376	1124.64
576.578	1165.71
576.78	1150.41
576.982	1057.8
577.185	1086.47
577.387	1035.32
577.589	1048.88
577.791	1110.69
577.993	1079.88
578.196	1049.27
578.398	1084.73
578.6	1118.05
578.802	1041.52
579.004	1045.4
579.206	1025.63
579.408	1072.52
579.61	1045.98
579.812	1100.61
580.014	1073.49
580.216	1056.25
580.418	1060.7
580.62	1028.54
580.822	997.35
581.024	1093.44
581.226	1091.31
581.428	1024.08
581.63	1129.48
581.832	1021.95
582.034	1116.89
582.236	1074.85
582.438	1103.33
582.64	1113.4
582.841	1156.41
583.043	1147.69
583.245	1078.14
583.447	1104.68
583.649	1090.34
583.85	1086.66
584.052	1097.32
584.254	1078.33
584.456	1137.62
584.657	1025.25
584.859	1075.81
585.061	1073.88
585.262	1062.25
585.464	1030.67
585.666	1111.46
585.867	1051.01
586.069	1120.38
586.27	1055.66
586.472	1061.28
586.674	1018.08
586.875	1025.05
587.077	1048.69
587.278	1065.93
587.48	1035.71
587.681	1134.71
587.883	1045.01
588.084	988.24
588.285	1002.58
588.487	1009.94
588.688	1009.55
588.89	955.5
589.091	939.8
589.292	962.08
589.494	925.27
589.695	913.26
589.896	860.17
590.098	877.8
590.299	917.72
590.5	898.15
590.702	925.08
590.903	939.61
591.104	973.9
591.305	959.95
591.507	1033
591.708	969.06
591.909	949.3
592.11	1022.73
592.311	985.92
592.512	936.51
592.714	932.44
592.915	914.03
593.116	933.99
593.317	962.47
593.518	930.12
593.719	960.53
593.92	978.94
594.121	1012.85
594.322	957.63
594.523	943.1
594.724	929.53
594.925	957.24
595.126	964.6
595.327	950.85
595.528	940
595.729	974.29
595.929	939.42
596.13	943.48
596.331	963.63
596.532	947.36
596.733	1015.17
596.934	971.19
597.135	999.09
597.335	957.43
597.536	915.2
597.737	975.65
597.938	942.71
598.138	934.96
598.339	957.05
598.54	979.52
598.74	954.72
598.941	919.07
599.142	1009.55
599.342	947.94
599.543	928.37
599.744	959.18
599.944	943.87
600.145	935.93
600.345	950.85
600.546	1026.99
600.746	1003.55
600.947	1041.13
601.147	965.38
601.348	1018.66
601.548	936.9
601.749	953.37
601.949	923.72
602.15	937.28
602.35	932.44
602.551	999.09
602.751	919.65
602.951	942.9
603.152	879.74
603.352	951.43
603.552	938.06
603.753	991.92
603.953	933.22
604.153	950.65
604.354	927.21
604.554	889.24
604.754	925.27
604.954	911.32
605.155	952.78
605.355	952.2
605.555	976.23
605.755	991.34
605.955	968.09
606.155	971.58
606.356	936.7
606.556	973.52
606.756	968.87
606.956	902.41
607.156	1010.13
607.356	903.77
607.556	928.95
607.756	957.24
607.956	996.18
608.156	947.36
608.356	892.92
608.556	967.9
608.756	926.63
608.956	903.96
609.156	945.81
609.356	908.8
609.556	921.59
609.755	931.86
609.955	897.76
610.155	952.01
610.355	912.29
610.555	890.98
610.755	905.32
610.954	865.79
611.154	904.93
611.354	919.46
611.554	896.6
611.753	926.24
611.953	853.59
612.153	937.28
612.352	940.77
612.552	853.59
612.752	813.87
612.951	884
613.151	898.92
613.351	866.37
613.55	866.95
613.75	882.45
613.949	884.2
614.149	916.55
614.348	866.37
614.548	850.49
614.747	776.47
614.947	830.34
615.146	809.8
615.346	873.93
615.545	876.25
615.745	860.56
615.944	882.65
616.144	853.78
616.343	891.37
616.542	817.74
616.742	841.19
616.941	821.23
617.14	802.44
617.34	845.06
617.539	849.13
617.738	808.64
617.938	889.43
618.137	824.14
618.336	789.07
618.535	859.59
618.734	829.17
618.934	832.85
619.133	855.91
619.332	830.53
619.531	814.26
619.73	812.12
619.929	865.21
620.128	884.78
620.328	864.82
620.527	828.2
620.726	789.26
620.925	813.67
621.124	815.22
621.323	822
621.522	773.76
621.721	780.16
621.92	794.49
622.119	836.73
622.318	794.69
622.517	794.69
622.715	791.97
622.914	757.68
623.113	775.89
623.312	752.64
623.511	805.54
623.71	774.92
623.909	780.16
624.107	835.95
624.306	753.22
624.505	747.61
624.704	796.04
624.902	818.71
625.101	836.15
625.3	782.48
625.499	751.29
625.697	747.8
625.896	777.06
626.095	752.06
626.293	705.37
626.492	728.81
626.69	747.02
626.889	738.5
627.088	764.85
627.286	709.05
627.485	716.8
627.683	699.75
627.882	726.1
628.08	669.91
628.279	723.97
628.477	786.55
628.676	692.19
628.874	752.64
629.073	688.32
629.271	661.58
629.469	714.48
629.668	711.57
629.866	714.28
630.065	671.27
630.263	732.49
630.461	686.77
630.66	707.11
630.858	740.05
631.056	717.77
631.254	743.54
631.453	691.42
631.651	726.29
631.849	726.29
632.047	754.97
632.245	679.41
632.444	732.49
632.642	738.89
632.84	747.22
633.038	690.06
633.236	668.17
633.434	705.18
633.632	665.07
633.83	710.21
634.028	765.43
634.227	743.73
634.425	811.74
634.623	731.72
634.821	754.58
635.019	709.05
635.216	707.89
635.414	748.77
635.612	716.61
635.81	708.28
636.008	768.53
636.206	730.75
636.404	753.03
636.602	728.62
636.8	718.93
636.997	744.7
637.195	713.51
637.393	710.6
637.591	783.84
637.789	737.72
637.986	725.71
638.184	740.44
638.382	787.32
638.58	780.54
638.777	808.44
638.975	734.43
639.173	712.73
639.37	733.27
639.568	743.15
639.765	748.38
639.963	725.33
640.161	755.36
640.358	743.34
640.556	687.74
640.753	677.28
640.951	684.06
641.148	703.63
641.346	703.24
641.543	722.81
641.741	728.81
641.938	673.59
642.136	723.39
642.333	688.32
642.531	725.91
642.728	776.28
642.925	700.91
643.123	711.76
643.32	719.51
643.517	726.68
643.715	709.24
643.912	666.04
644.109	678.63
644.306	699.75
644.504	684.64
644.701	708.47
644.898	725.13
645.095	703.24
645.293	669.33
645.49	724.36
645.687	687.16
645.884	729.01
646.081	646.47
646.278	663.71
646.475	679.21
646.672	662.16
646.87	720.09
647.067	657.9
647.264	700.14
647.461	649.38
647.658	612.18
647.855	674.56
648.052	634.26
648.249	593.38
648.446	608.88
648.642	620.7
648.839	637.95
649.036	611.21
649.233	588.15
649.43	593.77
649.627	587.96
649.824	620.9
650.021	603.65
650.217	595.32
650.414	618.57
650.611	640.08
650.808	651.7
651.004	652.09
651.201	669.53
651.398	651.51
651.595	630.97
651.791	600.94
651.988	685.99
652.185	602.68
652.381	663.52
652.578	591.64
652.775	620.31
652.971	611.21
653.168	632.91
653.364	664.68
653.561	559.67
653.757	586.02
653.954	591.45
654.15	577.3
654.347	672.63
654.543	593
654.74	586.41
654.936	577.5
655.133	598.61
655.329	621.48
655.525	588.73
655.722	645.89
655.918	562.19
656.115	584.47
656.311	497.28
656.507	518.98
656.704	469.97
656.9	530.03
657.096	521.12
657.292	491.86
657.489	573.43
657.685	556.76
657.881	527.9
658.077	553.86
658.273	571.68
658.47	616.44
658.666	558.31
658.862	574.01
659.058	564.9
659.254	608.69
659.45	557.54
659.646	590.09
659.842	565.87
660.038	600.75
660.234	559.28
660.43	559.28
660.626	640.08
660.822	613.73
661.018	606.75
661.214	547.08
661.41	562.19
661.606	586.21
661.802	603.85
661.998	549.98
662.194	558.51
662.39	585.05
662.586	585.05
662.781	574.59
662.977	605.2
663.173	618.57
663.369	570.91
663.564	586.41
663.76	597.06
663.956	572.46
664.152	588.54
664.347	516.08
664.543	578.08
664.739	546.5
664.934	536.23
665.13	487.4
665.326	567.61
665.521	571.68
665.717	542.23
665.912	520.15
666.108	468.42
666.304	548.24
666.499	519.95
666.695	479.27
666.89	510.65
667.086	554.44
667.281	586.41
667.477	602.1
667.672	558.7
667.867	557.15
668.063	562.19
668.258	502.32
668.454	535.45
668.649	602.68
668.844	538.17
669.04	540.88
669.235	502.32
669.43	530.22
669.626	487.4
669.821	534.29
670.016	505.62
670.211	519.18
670.407	488.57
670.602	512.59
670.797	495.93
670.992	538.36
671.187	481.78
671.382	562.77
671.578	495.93
671.773	532.55
671.968	475.97
672.163	516.85
672.358	535.65
672.553	483.92
672.748	494.96
672.943	559.09
673.138	528.87
673.333	549.6
673.528	474.03
673.723	516.47
673.918	493.41
674.113	483.92
674.308	588.15
674.503	527.9
674.698	508.52
674.892	529.45
675.087	513.17
675.282	524.99
675.477	480.04
675.672	524.99
675.867	513.37
676.061	473.65
676.256	442.26
676.451	477.91
676.646	493.41
676.84	454.08
677.035	442.07
677.23	468.03
677.424	512.4
677.619	525.57
677.814	526.93
678.008	541.85
678.203	453.11
678.397	454.85
678.592	506.97
678.787	534.48
678.981	487.02
679.176	504.45
679.37	489.92
679.565	480.04
679.759	462.22
679.954	523.44
680.148	566.65
680.342	529.64
680.537	502.13
680.731	503.29
680.926	519.76
681.12	540.88
681.314	484.69
681.509	468.42
681.703	506
681.897	491.67
682.092	512.78
682.286	465.9
682.48	538.36
682.674	522.47
682.869	483.33
683.063	514.33
683.257	571.3
683.451	491.67
683.645	502.71
683.839	507.36
684.034	477.91
684.228	526.15
684.422	488.95
684.616	469.38
684.81	520.92
685.004	478.1
685.198	488.18
685.392	560.45
685.586	532.55
685.78	508.72
685.974	529.45
686.168	503.48
686.362	533.13
686.556	459.89
686.75	438.97
686.944	419.4
687.138	434.51
687.331	393.05
687.525	366.7
687.719	374.26
687.913	379.87
688.107	414.75
688.301	369.99
688.494	418.43
688.688	396.73
688.882	364.37
689.076	350.23
689.269	384.91
689.463	480.04
689.657	421.72
689.85	416.88
690.044	417.85
690.238	424.82
690.431	413.2
690.625	402.35
690.818	450.98
691.012	469.97
691.205	459.5
691.399	428.89
691.593	450.2
691.786	528.67
691.98	477.33
692.173	540.68
692.366	525.96
692.56	532.55
692.753	572.65
692.947	493.6
693.14	549.02
693.333	556.18
693.527	480.43
693.72	532.35
693.914	532.74
694.107	518.79
694.3	525.38
694.493	514.72
694.687	570.71
694.88	501.55
695.073	595.13
695.266	573.43
695.46	545.92
695.653	603.46
695.846	618.18
696.039	529.64
696.232	569.75
696.425	670.3
696.618	612.76
696.812	625.74
697.005	689.68
697.198	734.24
697.391	669.53
697.584	677.28
697.777	734.43
697.97	696.07
698.163	730.36
698.356	716.61
698.549	789.46
698.742	739.66
698.935	691.03
699.127	725.71
699.32	710.6
699.513	741.41
699.706	719.13
699.899	733.07
700.092	737.34
700.285	752.26
700.477	712.34
700.67	783.06
700.863	779.19
701.056	851.65
701.248	824.33
701.441	817.94
701.634	782.87
701.826	893.69
702.019	804.37
702.212	864.44
702.404	808.06
702.597	822.78
702.79	841.77
702.982	871.22
703.175	903.38
703.367	906.28
703.56	907.25
703.752	1025.05
703.945	933.6
704.137	949.88
704.33	981.46
704.522	1000.06
704.715	963.63
704.907	1028.93
705.1	1050.05
705.292	1043.85
705.484	1053.15
705.677	1071.16
705.869	1079.88
706.061	1105.26
706.254	1147.5
706.446	1089.57
706.638	1053.73
706.831	1166.68
707.023	1117.47
707.215	1204.85
707.407	1171.91
707.599	1192.64
707.792	1207.56
707.984	1218.41
708.176	1263.55
708.368	1222.29
708.56	1249.99
708.752	1252.7
708.944	1274.79
709.136	1299.59
709.329	1292.04
709.521	1398.6
709.713	1345.7
709.905	1361.98
710.097	1384.26
710.289	1336.79
710.481	1381.93
710.672	1381.93
710.864	1416.81
711.056	1459.24
711.248	1450.91
711.44	1440.83
711.632	1448
711.824	1470.28
712.016	1546.62
712.207	1551.27
712.399	1524.92
712.591	1572.19
712.783	1563.86
712.975	1617.53
713.166	1530.54
713.358	1544.29
713.55	1647.17
713.741	1634
713.933	1612.88
714.125	1635.55
714.316	1590.79
714.508	1693.87
714.7	1705.3
714.891	1702.39
715.083	1706.46
715.274	1685.54
715.466	1723.32
715.657	1763.62
715.849	1685.34
716.04	1743.47
716.232	1644.66
716.423	1716.15
716.615	1694.64
716.806	1624.89
716.998	1598.74
717.189	1566.77
717.381	1476.29
717.572	1486.75
717.763	1504.19
717.955	1474.55
718.146	1477.26
718.337	1442.38
718.528	1420.49
718.72	1372.63
718.911	1395.5
719.102	1341.63
719.293	1425.14
719.485	1382.32
719.676	1411.77
719.867	1357.33
720.058	1395.3
720.249	1414.48
720.44	1435.8
720.632	1440.25
720.823	1513.68
721.014	1598.93
721.205	1646.98
721.396	1678.37
721.587	1808.37
721.778	1829.1
721.969	1849.83
722.16	1917.26
722.351	1897.88
722.542	2037.77
722.733	2055.59
722.924	1950.39
723.115	2023.24
723.305	1995.14
723.496	2023.43
723.687	1899.24
723.878	1924.43
724.069	1953.88
724.26	1962.98
724.45	1925.2
724.641	1907.96
724.832	1941.09
725.023	1927.91
725.213	1873.66
725.404	1895.17
725.595	1939.15
725.785	1912.22
725.976	2000.76
726.167	1970.34
726.357	1981
726.548	2074.97
726.739	2010.06
726.929	2098.41
727.12	2094.34
727.31	2100.54
727.501	2076.32
727.691	2084.27
727.882	2119.72
728.072	2159.44
728.263	2161.38
728.453	2212.53
728.644	2235.2
728.834	2191.22
729.024	2182.3
729.215	2184.05
729.405	2255.54
729.596	2299.33
729.786	2308.05
729.976	2317.15
730.167	2313.28
730.357	2284.99
730.547	2335.36
730.737	2326.84
730.928	2379.54
731.118	2427.01
731.308	2365.4
731.498	2403.18
731.688	2529.31
731.879	2520.78
732.069	2548.1
732.259	2575.22
732.449	2620.37
732.639	2696.9
732.829	2753.47
733.019	2750.56
733.209	2844.73
733.399	2864.1
733.589	2910.21
733.779	2964.85
733.969	2942.76
734.159	3043.9
734.349	3082.26
734.539	3123.53
734.729	3079.16
734.919	3153.56
735.109	3208.97
735.299	3175.06
735.488	3208.39
735.678	3207.81
735.868	3163.63
736.058	3162.47
736.248	3210.13
736.437	3181.65
736.627	3133.8
736.817	3254.31
737.007	3196.96
737.196	3296.54
737.386	3314.56
737.576	3303.71
737.765	3324.44
737.955	3335.68
738.144	3425.58
738.334	3423.64
738.524	3352.73
738.713	3384.31
738.903	3386.83
739.092	3469.75
739.282	3447.86
739.471	3463.75
739.661	3421.9
739.85	3520.52
740.04	3481.96
740.229	3504.05
740.419	3578.25
740.608	3536.98
740.797	3579.03
740.987	3675.13
741.176	3656.72
741.365	3605.38
741.555	3564.5
741.744	3655.56
741.933	3597.24
742.123	3681.91
742.312	3714.07
742.501	3714.65
742.69	3747.98
742.88	3632.7
743.069	3813.07
743.258	3736.74
743.447	3793.31
743.636	3787.31
743.825	3731.12
744.014	3773.74
744.204	3813.85
744.393	3775.88
744.582	3853.37
744.771	3867.71
744.96	3842.33
745.149	3904.52
745.338	3796.41
745.527	3942.5
745.716	3868.29
745.905	3830.12
746.094	3945.21
746.283	3870.42
746.471	3902.97
746.66	3942.11
746.849	3924.09
747.038	3961.1
747.227	3939.01
747.416	3913.05
747.604	3928.74
747.793	3958.19
747.982	3933.78
748.171	3983.77
748.359	3937.65
748.548	4018.25
748.737	3931.07
748.926	3927
749.114	3850.08
749.303	3989.38
749.491	3901.04
749.68	3857.06
749.869	3953.15
750.057	3909.95
750.246	3866.94
750.434	3954.32
750.623	3899.49
750.811	3899.1
751	3935.33
751.188	3886.7
751.377	3922.35
751.565	3867.52
751.754	3895.03
751.942	3847.76
752.131	3958.19
752.319	3875.46
752.507	3855.31
752.696	3917.7
752.884	3923.12
753.072	3905.1
753.261	3903.36
753.449	3876.82
753.637	3892.9
753.825	4025.42
754.014	3868.68
754.202	3872.36
754.39	3942.3
754.578	3913.05
754.766	3896
754.955	3887.86
755.143	3917.7
755.331	3889.02
755.519	3892.9
755.707	3905.69
755.895	3878.75
756.083	3863.26
756.271	3820.05
756.459	3910.53
756.647	3878.37
756.835	3850.86
757.023	3800.29
757.211	3849.31
757.399	3837.49
757.587	3807.07
757.775	3762.12
757.963	3766.58
758.151	3809.2
758.339	3713.1
758.526	3758.24
758.714	3738.87
758.902	3634.44
759.09	3495.52
759.278	3281.82
759.465	3040.8
759.653	2628.5
759.841	2361.91
760.028	2043.19
760.216	1783.57
760.404	1658.61
760.591	1339.31
760.779	1162.61
760.967	1036.87
761.154	821.42
761.342	883.62
761.529	852.81
761.717	924.11
761.905	918.88
762.092	993.66
762.28	892.72
762.467	935.73
762.655	850.87
762.842	857.46
763.029	872.77
763.217	909.97
763.404	893.89
763.592	910.74
763.779	898.15
763.966	948.33
764.154	951.23
764.341	1016.72
764.528	1045.98
764.716	1133.36
764.903	1188.77
765.09	1227.91
765.277	1318.97
765.465	1496.25
765.652	1568.71
765.839	1651.24
766.026	1794.23
766.213	1859.52
766.4	1919.39
766.588	2211.75
766.775	2196.64
766.962	2332.85
767.149	2399.69
767.336	2576.77
767.523	2535.89
767.71	2722.67
767.897	2813.15
768.084	2896.84
768.271	2950.32
768.458	3029.95
768.645	3103.96
768.832	3080.32
769.019	3160.15
769.206	3149.88
769.392	3219.82
769.579	3350.21
769.766	3283.95
769.953	3300.23
770.14	3341.88
770.327	3325.41
770.513	3339.94
770.7	3412.21
770.887	3366.29
771.073	3438.75
771.26	3393.03
771.447	3370.17
771.634	3351.57
771.82	3470.34
772.007	3382.18
772.193	3410.27
772.38	3441.27
772.567	3408.34
772.753	3423.06
772.94	3459.49
773.126	3438.37
773.313	3479.64
773.499	3414.73
773.686	3483.51
773.872	3398.84
774.059	3416.09
774.245	3413.76
774.432	3427.52
774.618	3368.42
774.804	3387.8
774.991	3387.41
775.177	3384.12
775.363	3348.28
775.55	3394.58
775.736	3320.57
775.922	3320.76
776.109	3369.01
776.295	3347.5
776.481	3377.53
776.667	3354.47
776.853	3341.11
777.04	3332.58
777.226	3366.1
777.412	3392.64
777.598	3321.15
777.784	3356.41
777.97	3279.3
778.156	3318.83
778.342	3338.78
778.528	3300.03
778.715	3246.95
778.901	3309.33
779.087	3281.63
779.272	3271.55
779.458	3215.56
779.644	3229.7
779.83	3229.9
780.016	3358.16
780.202	3213.23
780.388	3227.76
780.574	3163.44
780.76	3206.06
780.946	3274.65
781.131	3230.67
781.317	3200.45
781.503	3156.66
781.689	3192.89
781.874	3232.22
782.06	3130.89
782.246	3178.75
782.432	3149.49
782.617	3213.04
782.803	3177.39
782.989	3074.51
783.174	3119.27
783.36	3042.15
783.545	3121.78
783.731	3105.51
783.916	3042.93
784.102	3114.81
784.288	3030.92
784.473	3070.83
784.659	3022
784.844	3077.03
785.029	3030.72
785.215	2998.76
785.4	2992.17
785.586	3090.2
785.771	2959.23
785.956	3049.71
786.142	2982.09
786.327	3014.64
786.512	3010.38
786.698	2972.21
786.883	2922.81
787.068	2927.84
787.254	2975.7
787.439	2928.81
787.624	2900.14
787.809	2928.62
787.994	2907.89
788.18	2971.44
788.365	2863.91
788.55	2859.84
788.735	2858.09
788.92	2880.76
789.105	2847.63
789.29	2873.4
789.475	2765.29
789.66	2801.91
789.845	2797.84
790.03	2773.62
790.215	2822.64
790.4	2834.65
790.585	2832.91
790.77	2753.08
790.955	2721.12
791.14	2759.86
791.325	2821.09
791.51	2708.52
791.695	2768.2
791.879	2766.65
792.064	2687.79
792.249	2798.23
792.434	2724.99
792.618	2707.94
792.803	2776.33
792.988	2734.1
793.173	2748.43
793.357	2784.47
793.542	2707.17
793.727	2752.5
793.911	2797.06
794.096	2788.35
794.281	2769.75
794.465	2837.36
794.65	2743.98
794.834	2824.38
795.019	2823.03
795.203	2835.62
795.388	2817.8
795.572	2900.33
795.757	2799.58
795.941	2810.82
796.126	2815.86
796.31	2725.18
796.494	2782.92
796.679	2736.23
796.863	2718.98
797.048	2831.74
797.232	2807.33
797.416	2813.34
797.601	2837.17
797.785	2839.88
797.969	2839.88
798.153	2826.71
798.338	2827.09
798.522	2869.14
798.706	2879.79
798.89	2871.08
799.074	2893.94
799.258	2886.38
799.443	2867.59
799.627	2820.12
799.811	2886.96
799.995	2830.78
800.179	2796.29
800.363	2803.26
800.547	2815.28
800.731	2854.61
800.915	2707.94
801.099	2779.24
801.283	2822.83
801.467	2831.74
801.651	2799.39
801.835	2848.6
802.019	2801.52
802.202	2826.51
802.386	2759.48
802.57	2781.37
802.754	2793.96
802.938	2734.48
803.121	2761.8
803.305	2809.85
803.489	2767.61
803.673	2772.07
803.856	2788.35
804.04	2796.29
804.224	2823.61
804.407	2785.83
804.591	2755.6
804.775	2765.1
804.958	2774.98
805.142	2869.14
805.326	2830.39
805.509	2781.37
805.693	2820.7
805.876	2864.29
806.06	2843.95
806.243	2845.89
806.427	2879.21
806.61	2889.68
806.794	2848.99
806.977	2841.04
807.16	2827.87
807.344	2863.33
807.527	2838.72
807.71	2811.6
807.894	2835.62
808.077	2837.75
808.26	2750.56
808.444	2784.86
808.627	2830.78
808.81	2761.41
808.993	2721.5
809.177	2718.02
809.36	2753.86
809.543	2738.75
809.726	2664.93
809.909	2643.04
810.092	2627.54
810.276	2617.65
810.459	2629.09
810.642	2608.35
810.825	2617.65
811.008	2607
811.191	2460.53
811.374	2508.38
811.557	2514.58
811.74	2550.62
811.923	2414.03
812.106	2481.45
812.289	2442.31
812.472	2435.14
812.654	2452.97
812.837	2413.44
813.02	2324.9
813.203	2297.58
813.386	2197.03
813.569	2168.35
813.751	2110.81
813.934	2140.65
814.117	2125.15
814.3	2092.6
814.482	2060.44
814.665	1975.77
814.848	1974.8
815.03	1921.71
815.213	1890.91
815.396	1901.56
815.578	1792.48
815.761	1797.52
815.943	1861.46
816.126	1789.77
816.309	1760.32
816.491	1722.35
816.674	1622.37
816.856	1709.56
817.039	1694.45
817.221	1795
817.403	1690.96
817.586	1759.74
817.768	1727.19
817.951	1684.76
818.133	1637.87
818.315	1710.14
818.498	1708.2
818.68	1747.15
818.862	1754.32
819.045	1741.92
819.227	1778.73
819.409	1762.07
819.591	1734.75
819.774	1758.97
819.956	1715.37
820.138	1786.09
820.32	1819.03
820.502	1873.28
820.684	1931.01
820.866	1955.43
821.048	1997.66
821.231	2007.54
821.413	1970.15
821.595	1980.03
821.777	1992.24
821.959	1988.36
822.141	2037.38
822.323	1863.98
822.505	1816.9
822.686	1779.5
822.868	1666.36
823.05	1590.79
823.232	1511.16
823.414	1469.9
823.596	1570.45
823.778	1526.86
823.96	1570.06
824.141	1587.5
824.323	1589.63
824.505	1694.06
824.687	1757.42
824.868	1816.32
825.05	1860.49
825.232	1946.71
825.413	2015.49
825.595	1944.77
825.777	1904.47
825.958	1920.94
826.14	1897.3
826.321	1953.88
826.503	1933.53
826.685	1939.35
826.866	1965.11
827.048	1977.32
827.229	1890.91
827.411	1831.43
827.592	1815.35
827.773	1811.08
827.955	1771.95
828.136	1727.58
828.318	1714.02
828.499	1768.27
828.68	1724.29
828.862	1734.17
829.043	1741.72
829.224	1683.21
829.406	1732.62
829.587	1704.52
829.768	1724.09
829.949	1769.43
830.131	1740.95
830.312	1785.51
830.493	1773.5
830.674	1761.1
830.855	1741.53
831.036	1732.23
831.218	1805.47
831.399	1830.65
831.58	1764.39
831.761	1741.92
831.942	1788.61
832.123	1722.35
832.304	1702.97
832.485	1694.45
832.666	1728.55
832.847	1739.59
833.028	1748.7
833.209	1742.69
833.389	1734.17
833.57	1643.49
833.751	1721.57
833.932	1777.57
834.113	1741.14
834.294	1695.22
834.475	1755.29
834.655	1812.05
834.836	1790.16
835.017	1808.37
835.198	1726.61
835.378	1743.08
835.559	1833.75
835.74	1771.37
835.92	1763.04
836.101	1760.71
836.281	1809.92
836.462	1824.84
836.643	1819.42
836.823	1828.13
837.004	1842.67
837.184	1899.82
837.365	1865.14
837.545	1853.32
837.726	1819.61
837.906	1892.26
838.087	1801.98
838.267	1836.47
838.448	1786.28
838.628	1832.59
838.808	1849.25
838.989	1865.91
839.169	1789.77
839.349	1844.41
839.53	1850.22
839.71	1847.51
839.89	1794.81
840.07	1873.47
840.251	1828.13
840.431	1892.07
840.611	1866.5
840.791	1802.37
840.971	1835.3
841.151	1816.9
841.332	1773.11
841.512	1892.85
841.692	1766.33
841.872	1838.02
842.052	1774.66
842.232	1843.25
842.412	1786.67
842.592	1791.9
842.772	1829.49
842.952	1811.47
843.132	1785.12
843.312	1794.81
843.492	1765.36
843.672	1808.57
843.851	1719.44
844.031	1758.58
844.211	1775.63
844.391	1778.34
844.571	1791.52
844.751	1798.68
844.93	1792.87
845.11	1739.2
845.29	1794.81
845.47	1763.81
845.649	1776.98
845.829	1796.36
846.009	1765.17
846.188	1768.46
846.368	1763.04
846.547	1779.31
846.727	1824.65
846.907	1715.95
847.086	1771.95
847.266	1766.91
847.445	1784.15
847.625	1764.59
847.804	1738.24
847.984	1759.16
848.163	1751.6
848.343	1695.8
848.522	1719.05
848.701	1697.16
848.881	1697.16
849.06	1729.9
849.239	1700.45
849.419	1734.94
849.598	1623.15
849.777	1631.87
849.957	1623.54
850.136	1552.04
850.315	1554.76
850.494	1559.99
850.674	1545.46
850.853	1608.04
851.032	1611.33
851.211	1659.77
851.39	1611.72
851.569	1557.47
851.748	1542.74
851.927	1632.84
852.107	1628.19
852.286	1582.85
852.465	1567.74
852.644	1620.82
852.823	1604.55
853.002	1626.44
853.181	1600.68
853.359	1620.05
853.538	1532.86
853.717	1576.07
853.896	1510.78
854.075	1443.74
854.254	1419.52
854.433	1330.4
854.611	1382.71
854.79	1315.48
854.969	1409.64
855.148	1451.68
855.327	1359.27
855.505	1444.71
855.684	1404.8
855.863	1447.23
856.041	1412.74
856.22	1470.09
856.399	1455.17
856.577	1570.26
856.756	1512.13
856.934	1632.84
857.113	1617.53
857.291	1565.99
857.47	1504.19
857.648	1584.4
857.827	1550.88
858.005	1618.69
858.184	1543.52
858.362	1601.06
858.541	1538.68
858.719	1539.06
858.898	1547.2
859.076	1509.03
859.254	1567.54
859.433	1496.83
859.611	1482.3
859.789	1460.98
859.967	1570.45
860.146	1585.95
860.324	1486.36
860.502	1492.56
860.68	1439.48
860.859	1466.21
861.037	1495.86
861.215	1457.88
861.393	1485.78
861.571	1476.68
861.749	1449.75
861.927	1461.95
862.105	1475.51
862.283	1492.56
862.461	1442.96
862.639	1439.86
862.817	1444.71
862.995	1446.84
863.173	1447.23
863.351	1444.71
863.529	1455.56
863.707	1494.31
863.885	1471.83
864.063	1400.34
864.241	1413.13
864.418	1507.48
864.596	1435.02
864.774	1404.02
864.952	1396.47
865.129	1392.2
865.307	1363.53
865.485	1343.77
865.663	1366.43
865.84	1319.35
866.018	1356.36
866.196	1217.44
866.373	1242.44
866.551	1209.89
866.728	1167.46
866.906	1195.55
867.084	1234.69
867.261	1278.86
867.439	1288.74
867.616	1314.7
867.794	1283.12
867.971	1299.98
868.149	1267.82
868.326	1328.46
868.503	1329.82
868.681	1306.57
868.858	1294.17
869.035	1276.73
869.213	1323.62
869.39	1285.84
869.567	1348.03
869.745	1292.81
869.922	1334.85
870.099	1315.87
870.276	1336.4
870.454	1336.6
870.631	1345.12
870.808	1293.97
870.985	1340.08
871.162	1369.34
871.339	1315.09
871.517	1232.17
871.694	1266.46
871.871	1269.56
872.048	1269.95
872.225	1291.26
872.402	1265.3
872.579	1289.71
872.756	1304.63
872.933	1230.42
873.11	1231.2
873.287	1270.53
873.463	1283.51
873.64	1229.84
873.817	1270.92
873.994	1235.46
874.171	1204.27
874.348	1250.77
874.524	1204.66
874.701	1224.03
874.878	1148.28
875.055	1229.07
875.231	1242.24
875.408	1272.47
875.585	1172.88
875.762	1215.89
875.938	1184.12
876.115	1204.85
876.291	1188.96
876.468	1176.95
876.645	1132.58
876.821	1200.2
876.998	1198.65
877.174	1190.51
877.351	1170.36
877.527	1169.78
877.704	1175.01
877.88	1156.03
878.057	1169.59
878.233	1207.56
878.409	1159.71
878.586	1167.26
878.762	1146.14
878.938	1132
879.115	1088.99
879.291	1146.92
879.467	1106.04
879.644	1134.33
879.82	1169.2
879.996	1126.77
880.172	1079.88
880.349	1114.76
880.525	1131.03
880.701	1064.19
880.877	1073.1
881.053	1085.69
881.229	1085.11
881.405	1150.79
881.581	1114.18
881.757	1073.88
881.933	1105.46
882.109	1139.75
882.285	1124.44
882.461	1035.51
882.637	1103.13
882.813	1071.75
882.989	1084.34
883.165	1175.4
883.341	1066.51
883.517	1124.25
883.693	1104.29
883.869	1125.22
884.044	1080.27
884.22	1146.53
884.396	1160.68
884.572	1141.49
884.747	1153.51
884.923	1102.94
885.099	1147.11
885.275	1112.43
885.45	1060.9
885.626	1049.85
885.801	1076.2
885.977	1090.93
886.153	1027.57
886.328	1115.53
886.504	1090.34
886.679	1077.75
886.855	1091.7
887.03	1106.62
887.206	1102.74
887.381	1080.85
887.557	1121.34
887.732	1117.86
887.908	1087.24
888.083	1097.9
888.258	1077.94
888.434	1059.93
888.609	1114.56
888.784	1138.2
888.96	1064
889.135	1070.78
889.31	1065.16
889.485	1084.73
889.661	1070.97
889.836	1137.23
890.011	1113.21
890.186	1103.91
890.361	1055.86
890.537	1105.84
890.712	1125.99
890.887	1099.06
891.062	1089.96
891.237	1106.43
891.412	1064.96
891.587	1097.13
891.762	1099.26
891.937	1144.98
892.112	1064.96
892.287	1050.43
892.462	1016.53
892.637	1018.27
892.812	983.78
892.987	1011.49
893.161	981.85
893.336	984.17
893.511	971.77
893.686	987.85
893.861	973.32
894.035	993.66
894.21	969.64
894.385	941.74
894.56	954.92
894.734	922.95
894.909	908.03
895.084	888.46
895.258	889.04
895.433	874.51
895.608	850.87
895.782	800.11
895.957	832.08
896.131	834.02
896.306	761.75
896.48	778.41
896.655	763.49
896.829	719.32
897.004	713.51
897.178	733.66
897.353	688.9
897.527	737.34
897.701	706.14
897.876	687.35
898.05	765.43
898.224	739.66
898.399	753.81
898.573	705.95
898.747	618.18
898.921	633.49
899.096	570.33
899.27	578.08
899.444	577.88
899.618	607.91
899.792	635.81
899.967	650.15
900.141	675.53
900.315	613.73
900.489	598.03
900.663	635.04
900.837	642.79
901.011	568.2
901.185	644.73
901.359	645.5
901.533	648.02
901.707	615.86
901.881	617.99
902.055	583.89
902.229	645.11
902.403	667.98
902.576	636.98
902.75	638.91
902.924	746.44
903.098	714.09
903.272	748.96
903.446	763.49
903.619	761.94
903.793	790.42
903.967	764.07
904.14	797.21
904.314	836.54
904.488	775.31
904.661	830.14
904.835	766.59
905.009	843.7
905.182	834.4
905.356	816.58
905.529	788.1
905.703	754.19
905.876	769.89
906.05	742.76
906.223	727.46
906.397	649.96
906.57	667.78
906.744	606.36
906.917	624.77
907.09	591.83
907.264	601.52
907.437	587.76
907.61	560.45
907.784	577.69
907.957	579.05
908.13	550.76
908.304	609.66
908.477	545.33
908.65	574.2
908.823	518.4
908.996	587.96
909.17	544.95
909.343	540.49
909.516	566.26
909.689	542.43
909.862	537.97
910.035	565.48
910.208	509.49
910.381	557.15
910.554	634.65
910.727	564.32
910.9	532.16
911.073	526.54
911.246	601.71
911.419	601.91
911.592	579.24
911.765	562.19
911.938	539.13
912.11	536.23
912.283	553.86
912.456	574.59
912.629	563.35
912.802	553.08
912.974	501.74
913.147	449.24
913.32	430.64
913.493	450.98
913.665	465.7
913.838	458.15
914.01	448.85
914.183	501.35
914.356	488.95
914.528	517.24
914.701	540.49
914.873	499.61
915.046	482.75
915.218	434.9
915.391	349.65
915.563	390.34
915.736	438
915.908	466.67
916.081	467.25
916.253	477.72
916.425	463.96
916.598	472.1
916.77	484.88
916.942	443.62
917.115	393.44
917.287	451.56
917.459	440.52
917.632	403.51
917.804	333.96
917.976	434.9
918.148	444.78
918.32	433.54
918.493	469.77
918.665	515.69
918.837	485.66
919.009	520.34
919.181	557.73
919.353	494.38
919.525	502.71
919.697	494.57
919.869	496.7
920.041	550.57
920.213	622.45
920.385	565.68
920.557	525.38
920.729	519.18
920.901	507.75
921.073	500
921.244	509.68
921.416	535.26
921.588	500.58
921.76	488.18
921.932	566.84
922.103	507.75
922.275	518.98
922.447	497.67
922.619	426.57
922.79	477.33
922.962	450.2
923.134	505.23
923.305	444
923.477	410.49
923.648	452.72
923.82	455.63
923.991	425.21
924.163	383.75
924.335	424.44
924.506	417.27
924.677	445.94
924.849	403.32
925.02	415.72
925.192	440.32
925.363	422.3
925.535	470.35
925.706	413.78
925.877	473.45
926.049	423.47
926.22	418.04
926.391	446.33
926.562	438.97
926.734	418.04
926.905	453.5
927.076	387.24
927.247	422.69
927.419	368.06
927.59	358.95
927.761	340.35
927.932	348.1
928.103	323.11
928.274	292.49
928.445	299.47
928.616	325.43
928.787	288.81
928.958	301.79
929.129	327.56
929.3	300.82
929.471	246.38
929.642	228.75
929.813	164.81
929.984	272.54
930.155	141.95
930.326	200.46
930.496	179.15
930.667	113.47
930.838	193.3
931.009	136.14
931.18	163.85
931.35	157.84
931.521	153
931.692	100.68
931.863	60.38
932.033	118.9
932.204	92.55
932.374	144.66
932.545	66.2
932.716	126.45
932.886	104.17
933.057	43.14
933.227	62.9
933.398	122.58
933.568	36.55
933.739	5.75
933.909	45.08
934.08	112.89
934.25	-2.97
934.421	21.64
934.591	67.75
934.761	16.02
934.932	-6.07
935.102	31.32
935.272	71.23
935.443	27.64
935.613	29
935.783	55.93
935.953	5.94
936.123	154.55
936.294	24.93
936.464	4.59
936.634	29.77
936.804	-10.91
936.974	18.34
937.144	61.55
937.314	69.49
937.484	-9.36
937.655	28.8
937.825	38.1
937.995	3.81
938.165	43.33
938.334	36.36
938.504	48.95
938.674	49.92
938.844	60.97
939.014	125.48
939.184	93.52
939.354	142.34
939.524	123.93
939.694	80.34
939.863	90.8
940.033	145.83
940.203	135.95
940.373	121.41
940.542	124.71
940.712	73.56
940.882	108.63
941.051	141.37
941.221	121.22
941.391	137.5
941.56	83.83
941.73	64.84
941.899	177.8
942.069	78.98
942.238	102.62
942.408	74.53
942.577	126.26
942.747	98.36
942.916	24.35
943.086	84.99
943.255	115.22
943.425	92.74
943.594	61.35
943.763	-2
943.933	16.99
944.102	-10.72
944.271	78.6
944.441	82.28
944.61	55.93
944.779	78.02
944.948	146.21
945.117	42.95
945.287	57.28
945.456	-3.55
945.625	36.55
945.794	47.6
945.963	41.78
946.132	67.36
946.301	24.15
946.47	107.47
946.639	-26.8
946.808	51.47
946.977	84.41
947.146	96.42
947.315	65.62
947.484	73.56
947.653	68.52
947.822	51.28
947.991	31.52
948.16	120.45
948.329	104.37
948.498	68.52
948.666	48.18
948.835	101.07
949.004	25.51
949.173	37.52
949.341	60.38
949.51	73.37
949.679	78.02
949.847	90.22
950.016	153
950.185	125.48
950.353	40.82
950.522	47.98
950.69	124.32
950.859	59.8
951.028	90.61
951.196	81.12
951.365	27.64
951.533	58.25
951.701	97.58
951.87	109.79
952.038	27.64
952.207	56.9
952.375	124.71
952.543	30.16
952.712	53.22
952.88	51.86
953.048	131.1
953.217	72.4
953.385	56.9
953.553	90.8
953.721	24.35
953.89	59.61
954.058	47.98
954.226	53.22
954.394	62.52
954.562	41.59
954.73	57.48
954.898	66.58
955.067	81.89
955.235	43.33
955.403	95.65
955.571	116.38
955.739	96.62
955.907	44.3
956.075	63.1
956.243	48.76
956.41	79.37
956.578	27.64
956.746	10.79
956.914	60.77
957.082	100.88
957.25	117.15
957.418	51.67
957.585	62.9
957.753	131.3
957.921	26.67
958.089	82.08
958.256	88.67
958.424	67.17
958.592	59.61
958.759	54.77
958.927	86.73
959.095	36.55
959.262	47.4
959.43	73.17
959.597	37.13
959.765	75.11
959.932	36.75
960.1	98.36
960.267	70.85
960.435	68.33
960.602	97.78
960.77	57.87
960.937	40.23
961.104	81.7
961.272	49.34
961.439	59.61
961.606	88.67
961.774	87.9
961.941	90.8
962.108	96.03
962.275	87.7
962.443	118.9
962.61	88.28
962.777	135.95
962.944	125.68
963.111	87.7
963.278	100.3
963.446	89.06
963.613	83.83
963.78	115.22
963.947	97.78
964.114	104.56
964.281	143.7
964.448	93.71
964.615	72.01
964.782	91
964.949	136.14
965.116	134.98
965.282	135.75
965.449	90.61
965.616	74.33
965.783	110.57
965.95	97.97
966.117	45.66
966.283	64.07
966.45	108.05
966.617	124.32
966.784	115.02
966.95	115.6
967.117	135.17
967.284	94.29
967.45	99.13
967.617	154.16
967.784	125.1
967.95	147.96
968.117	116.96
968.283	139.24
968.45	202.01
968.616	100.3
968.783	178.57
968.949	112.31
969.116	139.05
969.282	92.55
969.449	108.24
969.615	126.06
969.781	82.67
969.948	107.47
970.114	85.77
970.28	176.44
970.447	125.48
970.613	166.17
970.779	129.16
970.945	144.08
971.112	152.22
971.278	116.38
971.444	92.16
971.61	151.64
971.776	127.61
971.942	144.86
972.108	142.92
972.275	107.08
972.441	126.26
972.607	173.92
972.773	63.68
972.939	148.93
973.105	92.93
973.271	93.71
973.437	87.12
973.602	94.29
973.768	124.13
973.934	101.27
974.1	110.76
974.266	55.73
974.432	117.93
974.598	81.12
974.763	137.3
974.929	86.15
975.095	176.05
975.261	70.46
975.426	68.72
975.592	89.64
975.758	146.41
975.923	46.63
976.089	49.73
976.255	100.88
976.42	99.72
976.586	116.57
976.751	85.77
976.917	168.5
977.082	97.2
977.248	69.3
977.413	48.37
977.579	77.82
977.744	100.3
977.91	73.56
978.075	69.49
978.24	133.62
978.406	92.55
978.571	90.42
978.736	46.24
978.902	116.18
979.067	76.47
979.232	27.25
979.397	107.08
979.563	133.81
979.728	63.68
979.893	85.18
980.058	77.24
980.223	107.27
980.388	129.55
980.554	82.08
980.719	81.12
980.884	91
981.049	138.46
981.214	87.32
981.379	109.79
981.544	93.52
981.709	87.9
981.874	84.6
982.039	77.24
982.204	101.27
982.368	91.77
982.533	44.69
982.698	121.41
982.863	120.64
983.028	75.88
983.193	117.93
983.357	109.02
983.522	91.77
983.687	57.87
983.852	85.57
984.016	84.8
984.181	92.93
984.346	104.56
984.51	125.1
984.675	79.76
984.839	127.61
985.004	114.25
985.168	129.94
985.333	79.37
985.498	96.62
985.662	103.59
985.827	99.91
985.991	94.87
986.155	90.8
986.32	129.94
986.484	136.33
986.649	133.23
986.813	46.24
986.977	97
987.142	106.3
987.306	88.48
987.47	58.06
987.634	92.74
987.799	99.13
987.963	95.84
988.127	129.94
988.291	144.66
988.455	90.22
988.62	82.28
988.784	127.42
988.948	128.97
989.112	68.52
989.276	124.51
989.44	91.19
989.604	86.73
989.768	75.69
989.932	145.63
990.096	66.78
990.26	60
990.424	51.67
990.588	102.62
990.752	162.3
990.915	112.12
991.079	101.85
991.243	85.77
991.407	109.21
991.571	75.11
991.734	103.2
991.898	119.28
992.062	146.02
992.226	102.82
992.389	38.3
992.553	35.39
992.717	57.67
992.88	63.48
993.044	93.71
993.207	81.5
993.371	73.75
993.535	109.6
993.698	68.91
993.862	118.51
994.025	122
994.189	89.83
994.352	88.48
994.515	93.9
994.679	92.35
994.842	78.98
995.006	91.38
995.169	58.64
995.332	40.82
995.496	67.55
995.659	34.62
995.822	75.3
995.985	81.12
996.149	113.86
996.312	49.53
996.475	138.46
996.638	65.03
996.801	101.07
996.964	145.63
997.128	66.39
997.291	87.12
997.454	73.56
997.617	59.8
997.78	98.17
997.943	60.38
998.106	85.57
998.269	66.97
998.432	85.57
998.595	69.3
998.758	31.13
998.92	23.19
999.083	29.77
999.246	53.22
999.409	18.34
999.572	20.67
999.735	33.26
999.897	70.07
1000.06	34.62
1000.223	32.68
1000.386	106.3
1000.548	89.06
1000.711	66.2
1000.874	72.98
1001.036	22.99
1001.199	87.7
1001.361	20.47
1001.524	66.39
1001.687	103.01
1001.849	51.86
1002.012	63.29
1002.174	67.55
1002.337	96.03
1002.499	40.82
1002.661	114.44
1002.824	31.13
1002.986	31.32
1003.149	92.16
1003.311	39.46
1003.473	125.1
1003.636	52.05
1003.798	87.9
1003.96	78.6
1004.123	27.06
1004.285	60.38
1004.447	56.7
1004.609	41.4
1004.771	104.56
1004.933	-1.23
1005.096	29.58
1005.258	-4.33
1005.42	38.88
1005.582	69.1
1005.744	54.57
1005.906	-13.05
1006.068	60.19
1006.23	28.42
1006.392	-24.09
1006.554	15.82
1006.716	112.31
1006.878	81.7
1007.04	13.69
1007.202	44.11
1007.363	38.49
1007.525	66.78
1007.687	59.61
1007.849	66.39
1008.011	-11.69
1008.172	27.64
1008.334	43.14
1008.496	66.97
1008.658	-10.91
1008.819	17.18
1008.981	8.85
1009.143	7.1
1009.304	11.37
1009.466	75.3
1009.627	84.99
1009.789	129.36
1009.95	32.48
1010.112	31.71
1010.273	53.02
1010.435	26.87
1010.596	24.35
1010.758	39.27
1010.919	29
1011.081	1.29
1011.242	22.22
1011.403	33.45
1011.565	42.56
1011.726	56.12
1011.887	-11.5
1012.049	43.53
1012.21	85.96
1012.371	84.99
1012.532	-11.11
1012.693	36.75
1012.855	-6.46
1013.016	52.25
1013.177	61.35
1013.338	41.01
1013.499	101.46
1013.66	63.87
1013.821	70.65
1013.982	47.6
1014.143	54.77
1014.304	23.96
1014.465	40.62
1014.626	65.03
1014.787	-0.26
1014.948	125.48
1015.109	-34.94
1015.27	64.65
1015.431	-8.78
1015.592	21.25
1015.752	82.67
1015.913	18.73
1016.074	35.39
1016.235	36.94
1016.395	45.08
1016.556	24.35
1016.717	13.89
1016.877	73.17
1017.038	19.12
1017.199	46.82
1017.359	35.58
1017.52	47.02
1017.681	21.25
1017.841	23.57
1018.002	13.69
1018.162	3.42
1018.323	62.32
1018.483	40.43
1018.644	35.78
1018.804	-22.54
1018.964	16.21
1019.125	17.95
1019.285	41.4
1019.446	2.84
1019.606	6.14
1019.766	-16.15
1019.926	42.37
1020.087	11.17
1020.247	-25.64
1020.407	28.22
1020.567	52.25
1020.728	14.85
1020.888	-13.82
1021.048	24.15
1021.208	-10.33
1021.368	-20.02
1021.528	92.35
1021.688	59.03
1021.848	49.34
1022.008	21.83
1022.168	22.02
1022.328	20.67
1022.488	35.58
1022.648	-16.92
1022.808	31.52
1022.968	38.68
1023.128	6.52
1023.288	12.34
1023.448	19.5
1023.608	35.78
1023.767	45.66
1023.927	-2.39
1024.087	5.17
1024.247	-10.91
1024.406	25.51
1024.566	-19.44
1024.726	6.72
1024.885	-0.65
1025.045	29.58
1025.205	13.69
1025.364	22.6
1025.524	4.39
1025.683	31.71
1025.843	32.68
1026.003	33.26
1026.162	72.01
1026.321	59.42
1026.481	14.47
1026.64	5.75
1026.8	41.4
1026.959	13.89
1027.119	27.45
1027.278	14.08
1027.437	-16.34
1027.597	-2.58
1027.756	25.32
1027.915	41.98
1028.074	48.76
1028.234	-14.79
1028.393	28.22
1028.552	-4.71
1028.711	-44.82
1028.87	42.75
1029.03	-51.8
1029.189	27.45
1029.348	-46.76
1029.507	-12.08
1029.666	22.99
1029.825	-31.26
1029.984	-13.63
1030.143	7.1
1030.302	5.75
1030.461	-55.09
1030.62	11.75
1030.779	24.74
1030.938	-14.21
1031.097	-24.86
1031.255	62.13
1031.414	65.42
1031.573	47.6
1031.732	-31.84
1031.891	-29.13
1032.049	61.35
1032.208	5.75
1032.367	-3.94
1032.525	4.2
1032.684	-11.69
1032.843	19.5
1033.001	-30.68
1033.16	153
1033.319	43.92
1033.477	30.74
1033.636	10.98
1033.794	-24.86
1033.953	23.38
1034.111	53.22
1034.27	-9.56
1034.428	37.13
1034.587	-8.98
1034.745	4.2
1034.903	13.5
1035.062	21.05
1035.22	-30.29
1035.378	60.97
1035.537	1.49
1035.695	31.9
1035.853	-6.07
1036.011	47.98
1036.17	29.19
1036.328	-58.58
1036.486	15.24
1036.644	17.18
1036.802	-57.61
1036.96	-8.98
1037.119	-3.94
1037.277	1.87
1037.435	-1.81
1037.593	-14.98
1037.751	0.32
1037.909	35.97
1038.067	35.97
