Data from oakcork_FLMT105791__189__17-32-02-047.txt Node

Date: Mon Mar 20 17:32:02 GMT 2023
User: antho
Spectrometer: FLMT10579
Trigger mode: 0
Integration Time (sec): 1.000000E-1
Scans to average: 10
Electric dark correction enabled: true
Nonlinearity correction enabled: false
Boxcar width: 0
XAxis mode: Wavelengths
Number of Pixels in Spectrum: 3648
>>>>>Begin Spectral Data<<<<<
345.248	-148.01
345.464	-148.01
345.681	-148.01
345.898	-145.29
346.114	-158.66
346.331	-22.07
346.548	44.38
346.764	-10.06
346.981	-25.95
347.197	-22.26
347.414	5.63
347.631	-30.4
347.847	53.68
348.064	13
348.28	38.38
348.497	-50.75
348.713	6.41
348.93	52.91
349.146	24.04
349.363	-6.57
349.579	14.74
349.796	-5.99
350.012	4.47
350.229	32.57
350.445	21.13
350.661	-12.19
350.878	9.12
351.094	10.67
351.311	31.4
351.527	29.85
351.743	11.83
351.96	42.83
352.176	54.65
352.392	32.57
352.609	36.63
352.825	0.21
353.041	15.52
353.257	9.32
353.474	13.38
353.69	8.93
353.906	6.8
354.122	-4.25
354.339	60.08
354.555	1.18
354.771	4.28
354.987	42.06
355.203	62.98
355.42	-15.68
355.636	-6.96
355.852	-5.6
356.068	15.52
356.284	-25.56
356.5	50.2
356.716	27.92
356.932	14.55
357.148	24.04
357.364	20.36
357.58	42.64
357.796	48.26
358.012	43.03
358.228	42.06
358.444	-24.2
358.66	44.19
358.876	40.7
359.092	-5.6
359.308	38.38
359.524	28.5
359.74	-5.41
359.956	-29.05
360.172	15.13
360.388	41.87
360.604	16.1
360.819	82.55
361.035	36.25
361.251	21.13
361.467	-24.2
361.683	26.75
361.898	-0.37
362.114	32.18
362.33	29.85
362.546	46.13
362.762	6.22
362.977	19.78
363.193	-9.09
363.409	61.05
363.624	-27.88
363.84	-20.71
364.056	25.01
364.271	33.73
364.487	14.74
364.703	-9.86
364.918	-1.15
365.134	16.48
365.35	26.37
365.565	85.85
365.781	39.54
365.996	22.68
366.212	49.23
366.427	17.07
366.643	6.6
366.858	19
367.074	-11.8
367.289	57.56
367.505	112.97
367.72	-4.44
367.936	2.73
368.151	39.54
368.367	57.17
368.582	26.95
368.798	-2.89
369.013	65.7
369.228	37.22
369.444	35.86
369.659	57.95
369.874	32.18
370.09	49.62
370.305	-20.13
370.52	23.65
370.736	58.92
370.951	19
371.166	97.08
371.381	90.69
371.597	38.57
371.812	0.02
372.027	2.73
372.242	18.23
372.458	99.02
372.673	15.52
372.888	13.97
373.103	77.71
373.318	87.59
373.533	48.45
373.749	42.45
373.964	-21.3
374.179	53.68
374.394	-5.99
374.609	60.27
374.824	0.4
375.039	38.77
375.254	-0.18
375.469	71.12
375.684	15.32
375.899	59.3
376.114	23.85
376.329	5.05
376.544	45.74
376.759	44.38
376.974	-8.9
377.189	8.15
377.404	-13.74
377.619	48.65
377.834	-41.25
378.049	-29.24
378.264	-8.7
378.478	11.45
378.693	6.41
378.908	40.7
379.123	13
379.338	91.85
379.553	41.48
379.767	55.04
379.982	66.08
380.197	43.8
380.412	24.04
380.626	46.9
380.841	90.11
381.056	36.44
381.271	70.73
381.485	8.73
381.7	-10.64
381.915	36.63
382.129	7.96
382.344	24.43
382.559	36.05
382.773	36.63
382.988	-33.5
383.202	18.42
383.417	10.67
383.632	103.48
383.846	-0.57
384.061	29.85
384.275	23.46
384.49	58.14
384.704	60.47
384.919	40.12
385.133	14.93
385.348	27.53
385.562	10.48
385.777	44.38
385.991	1.95
386.206	23.07
386.42	-9.67
386.634	66.47
386.849	33.15
387.063	51.94
387.277	3.89
387.492	13
387.706	0.4
387.92	-5.41
388.135	76.93
388.349	44.97
388.563	19.58
388.778	15.52
388.992	66.28
389.206	48.84
389.42	99.41
389.635	25.01
389.849	75.58
390.063	42.45
390.277	48.45
390.491	67.63
390.706	40.9
390.92	85.26
391.134	42.25
391.348	60.85
391.562	-0.95
391.776	30.05
391.99	-2.7
392.205	56.01
392.419	-2.5
392.633	7.18
392.847	74.22
393.061	9.12
393.275	105.41
393.489	43.03
393.703	31.98
393.917	87.59
394.131	15.13
394.345	43.42
394.559	66.08
394.773	20.36
394.986	27.14
395.2	46.9
395.414	49.03
395.628	-19.94
395.842	49.23
396.056	32.18
396.27	-13.16
396.484	52.33
396.697	36.25
396.911	65.31
397.125	41.67
397.339	77.52
397.553	41.67
397.766	96.7
397.98	74.8
398.194	94.18
398.408	21.91
398.621	64.53
398.835	51.36
399.049	39.15
399.262	110.84
399.476	82.55
399.69	82.75
399.903	117.81
400.117	34.7
400.331	75.97
400.544	38.57
400.758	165.86
400.971	63.18
401.185	81.58
401.398	1.95
401.612	111.23
401.826	89.91
402.039	64.73
402.253	32.37
402.466	63.76
402.68	64.92
402.893	80.61
403.106	61.05
403.32	58.92
403.533	87.98
403.747	56.59
403.96	89.91
404.174	80.23
404.387	15.13
404.6	53.3
404.814	67.83
405.027	54.27
405.24	48.45
405.454	59.3
405.667	119.56
405.88	10.67
406.094	80.42
406.307	86.23
406.52	82.55
406.733	35.08
406.947	19.78
407.16	118.98
407.373	89.91
407.586	49.62
407.799	44
408.012	108.51
408.226	74.22
408.439	121.69
408.652	37.02
408.865	76.93
409.078	89.72
409.291	83.33
409.504	35.86
409.717	78.48
409.93	99.99
410.143	84.68
410.357	34.89
410.57	25.98
410.783	54.65
410.996	122.66
411.209	64.34
411.421	107.55
411.634	50.39
411.847	45.16
412.06	70.93
412.273	67.63
412.486	56.98
412.699	156.76
412.912	56.59
413.125	108.13
413.338	79.45
413.55	102.51
413.763	55.04
413.976	113.55
414.189	36.25
414.402	57.56
414.615	121.5
414.827	30.05
415.04	109.68
415.253	79.65
415.466	107.74
415.678	125.95
415.891	81.97
416.104	67.44
416.316	63.95
416.529	63.95
416.742	103.86
416.954	101.54
417.167	84.49
417.38	50.39
417.592	98.05
417.805	71.51
418.017	12.03
418.23	95.73
418.442	88.95
418.655	57.56
418.868	88.17
419.08	111.61
419.293	111.61
419.505	92.05
419.718	101.54
419.93	92.43
420.142	55.04
420.355	112.97
420.567	102.51
420.78	91.27
420.992	66.08
421.205	153.08
421.417	62.6
421.629	88.95
421.842	45.93
422.054	47.1
422.266	104.06
422.479	95.73
422.691	56.01
422.903	108.32
423.115	97.47
423.328	94.18
423.54	126.34
423.752	89.14
423.964	82.55
424.177	91.27
424.389	73.83
424.601	160.83
424.813	109.29
425.025	109.68
425.238	115.3
425.45	72.09
425.662	57.17
425.874	350.7
426.086	113.75
426.298	112.58
426.51	127.11
426.722	99.8
426.934	80.03
427.146	128.28
427.358	57.17
427.57	127.7
427.782	103.09
427.994	96.11
428.206	68.22
428.418	21.33
428.63	104.45
428.842	122.85
429.054	120.91
429.266	120.72
429.478	60.47
429.69	112
429.902	54.27
430.114	114.52
430.325	101.93
430.537	55.43
430.749	95.73
430.961	50.2
431.173	77.32
431.384	116.85
431.596	37.41
431.808	93.21
432.02	110.65
432.231	119.56
432.443	123.82
432.655	92.24
432.867	51.94
433.078	83.13
433.29	160.05
433.502	142.42
433.713	150.95
433.925	96.31
434.136	158.31
434.348	75.77
434.56	32.18
434.771	184.08
434.983	66.08
435.194	95.15
435.406	96.89
435.617	133.31
435.829	174
436.04	135.64
436.252	140.87
436.463	149.01
436.675	118.4
436.886	119.56
437.098	117.23
437.309	149.59
437.521	110.84
437.732	130.41
437.943	129.25
438.155	131.38
438.366	91.66
438.578	183.3
438.789	126.53
439	163.35
439.211	101.54
439.423	144.55
439.634	154.05
439.845	153.08
440.057	152.11
440.268	160.05
440.479	116.65
440.69	143.2
440.902	124.01
441.113	117.04
441.324	109.29
441.535	160.25
441.746	165.67
441.957	93.4
442.168	113.16
442.38	152.11
442.591	166.25
442.802	97.47
443.013	127.31
443.224	125.18
443.435	113.94
443.646	128.47
443.857	130.8
444.068	111.23
444.279	123.82
444.49	198.61
444.701	147.26
444.912	238.71
445.123	189.31
445.334	160.25
445.545	132.35
445.756	127.31
445.967	101.54
446.178	168.58
446.388	181.36
446.599	150.95
446.81	162.76
447.021	129.25
447.232	195.89
447.443	198.03
447.653	121.5
447.864	176.52
448.075	153.08
448.286	176.91
448.496	179.43
448.707	193.57
448.918	138.16
449.129	225.34
449.339	140.87
449.55	179.04
449.761	143.58
449.971	199.19
450.182	160.05
450.393	169.16
450.603	144.16
450.814	183.3
451.024	155.01
451.235	189.89
451.446	217.59
451.656	196.48
451.867	143.97
452.077	203.64
452.288	247.43
452.498	210.62
452.709	160.63
452.919	192.02
453.13	133.31
453.34	232.51
453.55	122.66
453.761	221.28
453.971	185.82
454.182	198.8
454.392	193.57
454.602	223.21
454.813	204.42
455.023	216.04
455.233	154.82
455.444	170.71
455.654	136.41
455.864	155.21
456.075	151.53
456.285	147.07
456.495	182.14
456.705	206.74
456.916	206.16
457.126	200.16
457.336	185.04
457.546	135.06
457.756	156.18
457.967	207.71
458.177	157.92
458.387	205.97
458.597	151.14
458.807	181.75
459.017	162.38
459.227	179.04
459.437	177.1
459.647	211.01
459.857	209.26
460.068	157.53
460.278	225.15
460.488	190.47
460.698	233.68
460.908	195.31
461.117	162.76
461.327	169.35
461.537	196.86
461.747	186.4
461.957	198.61
462.167	287.92
462.377	215.85
462.587	189.89
462.797	232.71
463.007	168.96
463.216	209.07
463.426	237.55
463.636	209.26
463.846	159.86
464.056	172.64
464.265	218.95
464.475	176.91
464.685	166.64
464.895	234.84
465.104	187.95
465.314	223.6
465.524	198.99
465.733	167.8
465.943	256.73
466.153	278.04
466.362	243.17
466.572	232.13
466.782	176.52
466.991	190.47
467.201	289.86
467.41	146.88
467.62	212.94
467.829	189.89
468.039	231.35
468.249	202.48
468.458	224.18
468.668	226.7
468.877	233.09
469.086	256.73
469.296	248.79
469.505	193.57
469.715	279.01
469.924	236.19
470.134	283.66
470.343	297.03
470.552	225.15
470.762	228.44
470.971	179.81
471.18	201.9
471.39	215.66
471.599	196.67
471.808	267.19
472.018	203.06
472.227	257.12
472.436	246.27
472.645	232.32
472.855	214.11
473.064	259.25
473.273	245.49
473.482	271.84
473.691	271.07
473.901	269.13
474.11	259.44
474.319	323.96
474.528	255.76
474.737	285.6
474.946	258.09
475.155	258.47
475.364	294.51
475.573	235.61
475.783	264.48
475.992	272.23
476.201	286.37
476.41	255.37
476.619	240.65
476.828	236.19
477.037	266.42
477.245	266.61
477.454	293.93
477.663	260.41
477.872	257.51
478.081	302.46
478.29	240.65
478.499	348.57
478.708	288.89
478.917	325.51
479.125	272.04
479.334	289.09
479.543	270.68
479.752	275.72
479.961	282.69
480.169	318.34
480.378	277.85
480.587	398.36
480.796	307.49
481.004	289.09
481.213	316.6
481.422	320.09
481.63	279.01
481.839	312.14
482.048	362.13
482.256	313.5
482.465	310.79
482.674	346.63
482.882	315.63
483.091	348.95
483.299	311.37
483.508	327.64
483.716	319.7
483.925	313.11
484.134	308.85
484.342	293.35
484.551	335.59
484.759	343.14
484.967	335.2
485.176	363.87
485.384	344.69
485.593	364.84
485.801	357.48
486.01	356.51
486.218	312.14
486.426	268.16
486.635	327.06
486.843	323.38
487.051	321.64
487.26	335.78
487.468	333.26
487.676	347.6
487.885	330.36
488.093	341.98
488.301	341.01
488.509	354.96
488.717	389.84
488.926	350.12
489.134	314.86
489.342	347.6
489.55	337.72
489.758	338.88
489.967	339.27
490.175	439.05
490.383	334.04
490.591	413.86
490.799	353.22
491.007	387.51
491.215	374.53
491.423	333.46
491.631	356.7
491.839	348.76
492.047	414.64
492.255	319.89
492.463	325.71
492.671	339.85
492.879	386.93
493.087	374.34
493.295	383.64
493.503	396.42
493.711	408.82
493.919	437.69
494.127	435.37
494.334	443.5
494.542	394.49
494.75	385.57
494.958	384.41
495.166	413.47
495.374	401.85
495.581	418.32
495.789	433.62
495.997	460.55
496.205	392.55
496.412	414.25
496.62	406.11
496.828	412.5
497.035	408.44
497.243	441.57
497.451	410.18
497.658	435.95
497.866	397.39
498.074	481.67
498.281	436.92
498.489	485.93
498.696	425.1
498.904	394.1
499.112	443.7
499.319	481.67
499.527	407.66
499.734	445.44
499.942	393.52
500.149	417.35
500.357	421.42
500.564	395.65
500.771	444.08
500.979	390.03
501.186	396.42
501.394	428.2
501.601	421.8
501.808	453
502.016	434.2
502.223	440.4
502.43	436.92
502.638	423.55
502.845	431.3
503.052	477.02
503.26	448.15
503.467	494.46
503.674	420.25
503.881	489.62
504.089	522.55
504.296	460.36
504.503	426.26
504.71	414.05
504.917	390.8
505.125	478.57
505.332	460.94
505.539	438.85
505.746	521.39
505.953	488.07
506.16	461.33
506.367	524.49
506.574	504.53
506.781	520.23
506.988	451.06
507.195	485.16
507.402	470.05
507.609	528.56
507.816	475.86
508.023	457.84
508.23	505.7
508.437	453.19
508.644	522.75
508.851	533.21
509.058	532.82
509.265	488.84
509.472	539.8
509.679	606.25
509.885	497.37
510.092	517.51
510.299	518.1
510.506	531.85
510.713	541.93
510.92	534.18
511.126	528.95
511.333	567.5
511.54	594.82
511.746	590.75
511.953	582.42
512.16	579.13
512.367	552.78
512.573	532.43
512.78	558.59
512.987	566.15
513.193	538.63
513.4	495.82
513.606	534.76
513.813	575.06
514.02	569.83
514.226	651.01
514.433	603.54
514.639	547.55
514.846	602.18
515.052	532.63
515.259	569.05
515.465	604.51
515.672	579.71
515.878	677.16
516.085	566.92
516.291	649.07
516.497	592.5
516.704	561.5
516.91	562.46
517.117	532.24
517.323	515.19
517.529	558.01
517.736	570.99
517.942	579.9
518.148	561.69
518.354	582.61
518.561	609.35
518.767	622.91
518.973	643.64
519.179	630.08
519.386	580.68
519.592	610.9
519.798	597.53
520.004	687.63
520.21	611.48
520.417	670.19
520.623	699.25
520.829	682.98
521.035	688.21
521.241	674.45
521.447	715.33
521.653	792.83
521.859	660.69
522.065	680.46
522.271	784.11
522.477	736.45
522.683	737.81
522.889	738.77
523.095	740.32
523.301	722.11
523.507	709.52
523.713	765.71
523.919	714.75
524.125	789.34
524.331	743.42
524.537	810.46
524.742	773.84
524.948	821.12
525.154	792.64
525.36	864.52
525.566	811.82
525.772	848.05
525.977	790.12
526.183	816.66
526.389	864.52
526.595	765.12
526.8	781.98
527.006	735.87
527.212	729.47
527.417	723.66
527.623	725.99
527.829	802.52
528.034	835.45
528.24	810.65
528.446	790.7
528.651	876.72
528.857	844.37
529.062	904.62
529.268	841.46
529.473	854.05
529.679	856.19
529.884	906.95
530.09	884.08
530.295	920.51
530.501	905.01
530.706	918.77
530.912	871.49
531.117	879.63
531.323	890.48
531.528	915.47
531.733	942.21
531.939	895.52
532.144	916.05
532.35	944.34
532.555	988.51
532.76	934.65
532.966	923.42
533.171	942.4
533.376	889.12
533.581	905.4
533.787	911.98
533.992	922.83
534.197	933.68
534.402	929.42
534.607	936.59
534.813	1000.72
535.018	931.36
535.223	938.92
535.428	955.58
535.633	997.04
535.838	1011.96
536.043	977.28
536.249	1067.18
536.454	974.37
536.659	1011.76
536.864	968.36
537.069	975.92
537.274	975.92
537.479	1006.92
537.684	999.95
537.889	954.8
538.094	1074.54
538.299	1000.91
538.504	988.71
538.708	1029.78
538.913	991.03
539.118	1025.33
539.323	1042.18
539.528	992.2
539.733	1002.27
539.938	1012.54
540.142	1045.86
540.347	999.75
540.552	993.75
540.757	1023.97
540.962	970.88
541.166	953.45
541.371	978.63
541.576	1000.33
541.781	913.34
541.985	1021.06
542.19	1001.5
542.395	1056.33
542.599	1067.56
542.804	1027.26
543.008	1081.51
543.213	985.03
543.418	1020.68
543.622	1060.98
543.827	992.2
544.031	1084.03
544.236	1100.11
544.44	1060.59
544.645	1097.4
544.849	1047.8
545.054	1091.59
545.258	1152.04
545.463	1128.4
545.667	1056.13
545.872	1074.73
546.076	1082.09
546.281	1067.56
546.485	1028.81
546.689	1068.53
546.894	1103.41
547.098	1095.66
547.302	1050.9
547.507	1063.88
547.711	1094.11
547.915	1101.08
548.119	1040.25
548.324	1077.64
548.528	1157.46
548.732	1080.54
548.936	1097.79
549.141	1124.53
549.345	1054.58
549.549	1091.39
549.753	1097.21
549.957	1171.99
550.161	1186.91
550.366	1121.04
550.57	1058.26
550.774	1122.98
550.978	1082.29
551.182	1103.02
551.386	1092.36
551.59	1102.44
551.794	1117.16
551.998	1109.99
552.202	1093.33
552.406	1052.84
552.61	1098.37
552.814	1081.9
553.018	1162.11
553.222	1106.51
553.426	1100.31
553.63	1154.56
553.833	1088.68
554.037	1063.69
554.241	1133.82
554.445	1105.34
554.649	1119.88
554.853	1117.94
555.056	1157.85
555.26	1153.78
555.464	1125.88
555.668	1144.29
555.871	1142.54
556.075	1135.96
556.279	1082.68
556.483	1038.11
556.686	1104.38
556.89	1074.34
557.094	1131.69
557.297	1054.78
557.501	1137.51
557.704	1039.86
557.908	1106.7
558.112	1069.11
558.315	1127.43
558.519	1057.88
558.722	1086.94
558.926	1059.23
559.129	1031.72
559.333	1018.93
559.536	1039.66
559.74	994.71
559.943	1024.94
560.147	1009.63
560.35	1046.06
560.553	1000.33
560.757	994.52
560.96	1079.58
561.164	1044.7
561.367	1098.56
561.57	1059.81
561.774	1035.6
561.977	1031.72
562.18	991.42
562.384	1091.78
562.587	1014.86
562.79	998.78
562.993	1012.73
563.197	1083.26
563.4	1084.03
563.603	1055.16
563.806	1087.33
564.009	1009.83
564.212	1064.46
564.416	964.88
564.619	1033.46
564.822	984.25
565.025	1078.03
565.228	990.65
565.431	992.78
565.634	945.89
565.837	971.85
566.04	949.57
566.243	954.03
566.446	887.77
566.649	1004.79
566.852	907.72
567.055	935.82
567.258	986
567.461	999.17
567.664	1002.46
567.867	905.4
568.07	977.28
568.273	934.65
568.475	969.91
568.678	937.95
568.881	930.2
569.084	919.73
569.287	851.15
569.489	904.23
569.692	928.45
569.895	926.71
570.098	882.53
570.3	847.85
570.503	826.54
570.706	848.82
570.909	867.03
571.111	817.24
571.314	822.67
571.516	851.92
571.719	869.17
571.922	841.85
572.124	822.09
572.327	877.5
572.529	781.59
572.732	801.55
572.935	797.09
573.137	881.95
573.34	809.88
573.542	852.12
573.745	862
573.947	830.61
574.15	824.22
574.352	819.76
574.554	849.21
574.757	787.21
574.959	784.69
575.162	789.92
575.364	774.23
575.566	877.5
575.769	775.78
575.971	822.86
576.173	700.02
576.376	795.54
576.578	795.35
576.78	823.05
576.982	702.54
577.185	760.47
577.387	726.57
577.589	719.79
577.791	804.84
577.993	784.11
578.196	746.72
578.398	766.48
578.6	798.84
578.802	720.17
579.004	721.72
579.206	737.81
579.408	756.02
579.61	775.59
579.812	787.4
580.014	736.64
580.216	737.81
580.418	737.81
580.62	735.67
580.822	672.51
581.024	739.55
581.226	772.68
581.428	743.42
581.63	793.41
581.832	716.3
582.034	778.88
582.236	767.26
582.438	780.43
582.64	784.69
582.841	801.55
583.043	837.59
583.245	765.32
583.447	774.23
583.649	739.36
583.85	772.68
584.052	794.96
584.254	744.59
584.456	772.87
584.657	716.88
584.859	712.81
585.061	751.76
585.262	707.58
585.464	716.11
585.666	746.72
585.867	704.29
586.069	771.71
586.27	746.72
586.472	758.34
586.674	711.84
586.875	720.76
587.077	722.11
587.278	760.67
587.48	699.44
587.681	795.35
587.883	723.86
588.084	664.96
588.285	689.56
588.487	672.71
588.688	719.21
588.89	641.32
589.091	648.68
589.292	654.69
589.494	621.17
589.695	640.74
589.896	579.32
590.098	569.05
590.299	655.27
590.5	596.37
590.702	634.15
590.903	656.04
591.104	713.01
591.305	663.6
591.507	687.82
591.708	659.73
591.909	650.81
592.11	729.86
592.311	683.75
592.512	635.31
592.714	612.06
592.915	591.91
593.116	652.36
593.317	645.97
593.518	631.83
593.719	658.37
593.92	672.13
594.121	704.09
594.322	639.38
594.523	630.08
594.724	605.67
594.925	598.89
595.126	672.9
595.327	649.26
595.528	671.74
595.729	634.15
595.929	640.35
596.13	663.02
596.331	640.74
596.532	664.18
596.733	691.11
596.934	661.28
597.135	659.73
597.335	678.71
597.536	650.04
597.737	663.41
597.938	605.86
598.138	665.34
598.339	644.42
598.54	694.02
598.74	669.41
598.941	657.59
599.142	691.11
599.342	664.18
599.543	625.43
599.744	631.63
599.944	632.6
600.145	627.56
600.345	638.03
600.546	711.84
600.746	695.37
600.947	716.49
601.147	650.62
601.348	682.98
601.548	650.23
601.749	648.49
601.949	638.8
602.15	592.5
602.35	669.8
602.551	699.83
602.751	638.41
602.951	599.86
603.152	560.33
603.352	635.31
603.552	658.76
603.753	647.91
603.953	670.19
604.153	658.76
604.354	611.48
604.554	613.81
604.754	635.89
604.954	605.28
605.155	663.6
605.355	628.53
605.555	675.23
605.755	691.11
605.955	631.83
606.155	673.09
606.356	637.25
606.556	668.25
606.756	655.08
606.956	566.92
607.156	663.41
607.356	606.44
607.556	672.13
607.756	630.66
607.956	681.81
608.156	633.76
608.356	648.1
608.556	680.26
608.756	616.71
608.956	600.25
609.156	628.73
609.356	581.84
609.556	594.05
609.755	623.69
609.955	597.53
610.155	605.86
610.355	621.17
610.555	594.05
610.755	594.24
610.954	536.89
611.154	584.75
611.354	652.56
611.554	563.43
611.753	568.47
611.953	551.03
612.153	610.32
612.352	604.51
612.552	547.35
612.752	517.9
612.951	586.88
613.151	564.4
613.351	574.28
613.55	574.86
613.75	617.49
613.949	572.15
614.149	574.86
614.348	575.83
614.548	557.62
614.747	504.92
614.947	535.34
615.146	496.2
615.346	566.53
615.545	554.71
615.745	552.97
615.944	564.21
616.144	539.6
616.343	586.1
616.542	557.04
616.742	570.21
616.941	550.65
617.14	520.42
617.34	544.06
617.539	541.93
617.738	492.91
617.938	599.28
618.137	526.43
618.336	504.53
618.535	553.55
618.734	548.32
618.934	539.02
619.133	537.47
619.332	535.92
619.531	497.56
619.73	521.39
619.929	580.29
620.128	559.56
620.328	604.31
620.527	507.83
620.726	530.11
620.925	548.71
621.124	504.34
621.323	549.1
621.522	492.91
621.721	487.1
621.92	480.51
622.119	541.54
622.318	506.08
622.517	528.75
622.715	506.67
622.914	469.08
623.113	516.16
623.312	463.65
623.511	551.42
623.71	481.48
623.909	495.82
624.107	541.73
624.306	474.31
624.505	475.67
624.704	482.25
624.902	507.05
625.101	531.08
625.3	511.9
625.499	482.64
625.697	496.59
625.896	488.07
626.095	538.25
626.293	450.09
626.492	444.86
626.69	488.45
626.889	477.41
627.088	513.64
627.286	437.5
627.485	434.01
627.683	464.43
627.882	501.82
628.08	432.07
628.279	479.93
628.477	520.23
628.676	428.97
628.874	484.19
629.073	433.62
629.271	434.78
629.469	456.29
629.668	454.16
629.866	467.92
630.065	422.97
630.263	488.65
630.461	422.77
630.66	462.88
630.858	490.97
631.056	507.63
631.254	489.42
631.453	417.74
631.651	485.16
631.849	446.6
632.047	489.23
632.245	474.89
632.444	480.7
632.642	461.33
632.84	500.27
633.038	458.23
633.236	424.52
633.434	476.25
633.632	414.05
633.83	454.74
634.028	476.44
634.227	488.26
634.425	516.35
634.623	491.55
634.821	460.36
635.019	473.34
635.216	436.53
635.414	469.08
635.612	475.86
635.81	435.75
636.008	496.59
636.206	448.35
636.404	493.3
636.602	440.98
636.8	467.14
636.997	484.97
637.195	502.6
637.393	430.33
637.591	523.71
637.789	474.5
637.986	462.88
638.184	489.62
638.382	519.65
638.58	487.1
638.777	526.43
638.975	475.67
639.173	474.89
639.37	482.25
639.568	463.27
639.765	486.71
639.963	439.05
640.161	528.36
640.358	475.28
640.556	446.99
640.753	397.2
640.951	452.61
641.148	480.12
641.346	444.08
641.543	428.78
641.741	482.64
641.938	424.52
642.136	442.92
642.333	428.39
642.531	473.73
642.728	499.88
642.925	448.73
643.123	402.82
643.32	465.78
643.517	461.91
643.715	464.43
643.912	430.72
644.109	459.58
644.306	423.16
644.504	421.03
644.701	422
644.898	480.9
645.095	425.1
645.293	439.43
645.49	471.21
645.687	449.32
645.884	452.22
646.081	388.29
646.278	427.04
646.475	389.06
646.672	417.93
646.87	433.43
647.067	431.1
647.264	410.37
647.461	411.34
647.658	367.94
647.855	447.38
648.052	415.22
648.249	342.95
648.446	372.59
648.642	375.11
648.839	356.32
649.036	399.72
649.233	366.39
649.43	368.91
649.627	353.6
649.824	383.83
650.021	384.02
650.217	359.42
650.414	377.24
650.611	401.85
650.808	410.18
651.004	380.92
651.201	393.71
651.398	479.35
651.595	401.85
651.791	366.78
651.988	412.89
652.185	359.22
652.381	392.35
652.578	330.16
652.775	354.38
652.971	380.15
653.168	364.65
653.364	406.69
653.561	330.55
653.757	382.09
653.954	395.45
654.15	363.68
654.347	434.98
654.543	365.62
654.74	320.67
654.936	340.82
655.133	355.54
655.329	370.46
655.525	403.59
655.722	391.39
655.918	323.77
656.115	361.94
656.311	320.86
656.507	319.89
656.704	283.47
656.9	320.86
657.096	307.69
657.292	281.34
657.489	362.13
657.685	346.63
657.881	323.38
658.077	309.04
658.273	326.87
658.47	413.09
658.666	329
658.862	382.28
659.058	326.48
659.254	340.82
659.45	290.44
659.646	356.51
659.842	345.47
660.038	361.16
660.234	329.77
660.43	342.17
660.626	400.49
660.822	359.03
661.018	375.89
661.214	335.01
661.41	307.3
661.606	349.54
661.802	368.14
661.998	324.74
662.194	274.75
662.39	359.8
662.586	348.18
662.781	369.3
662.977	347.99
663.173	386.15
663.369	312.34
663.564	334.42
663.76	349.34
663.956	329.77
664.152	364.45
664.347	284.05
664.543	345.47
664.739	308.46
664.934	271.65
665.13	275.14
665.326	338.11
665.521	316.02
665.717	295.29
665.912	268.74
666.108	270.49
666.304	288.51
666.499	291.61
666.695	245.3
666.89	312.72
667.086	337.33
667.281	320.09
667.477	369.88
667.672	314.47
667.867	292.77
668.063	353.22
668.258	268.74
668.454	284.44
668.649	385.96
668.844	323.57
669.04	332.1
669.235	276.49
669.43	279.01
669.626	287.54
669.821	269.32
670.016	278.04
670.211	310.21
670.407	264.67
670.602	278.24
670.797	283.47
670.992	314.47
671.187	284.82
671.382	319.89
671.578	271.46
671.773	325.9
671.968	266.81
672.163	270.49
672.358	295.48
672.553	290.06
672.748	251.89
672.943	371.62
673.138	303.04
673.333	328.81
673.528	263.51
673.723	309.04
673.918	278.82
674.113	249.18
674.308	356.51
674.503	283.27
674.698	297.81
674.892	312.34
675.087	314.86
675.282	316.6
675.477	272.23
675.672	300.91
675.867	281.14
676.061	256.34
676.256	263.32
676.451	279.79
676.646	281.34
676.84	262.54
677.035	239.68
677.23	260.41
677.424	310.4
677.619	325.12
677.814	320.28
678.008	291.41
678.203	237.74
678.397	256.73
678.592	289.47
678.787	345.66
678.981	268.55
679.176	294.32
679.37	280.17
679.565	279.79
679.759	259.25
679.954	281.92
680.148	332.87
680.342	324.93
680.537	304.01
680.731	284.05
680.926	292.57
681.12	304.01
681.314	232.51
681.509	279.21
681.703	280.95
681.897	300.71
682.092	272.81
682.286	271.46
682.48	341.4
682.674	316.41
682.869	299.36
683.063	292.96
683.257	363.49
683.451	254.21
683.645	319.89
683.839	280.76
684.034	272.42
684.228	341.01
684.422	258.67
684.616	270.49
684.81	297.03
685.004	287.73
685.198	308.85
685.392	337.33
685.586	289.28
685.78	301.87
685.974	333.65
686.168	324.16
686.362	351.86
686.556	282.89
686.75	283.86
686.944	260.41
687.138	326.87
687.331	210.23
687.525	257.31
687.719	214.69
687.913	262.35
688.107	257.31
688.301	234.26
688.494	271.65
688.688	240.84
688.882	234.26
689.076	244.91
689.269	253.24
689.463	317.18
689.657	278.82
689.85	268.74
690.044	297.42
690.238	261.96
690.431	252.86
690.625	259.06
690.818	302.46
691.012	284.24
691.205	331.52
691.399	275.52
691.593	307.49
691.786	349.73
691.98	359.22
692.173	366.59
692.366	305.17
692.56	363.1
692.753	405.92
692.947	299.16
693.14	397.78
693.333	367.55
693.527	297.81
693.72	387.7
693.914	335.59
694.107	332.68
694.3	380.73
694.493	360
694.687	391.19
694.88	363.29
695.073	417.35
695.266	389.64
695.46	384.6
695.653	435.17
695.846	426.84
696.039	352.05
696.232	400.88
696.425	419.67
696.618	422.97
696.812	422.58
697.005	463.85
697.198	524.3
697.391	472.76
697.584	501.24
697.777	523.91
697.97	498.14
698.163	504.15
698.356	480.32
698.549	596.56
698.742	535.34
698.935	515.19
699.127	543.86
699.32	533.01
699.513	519.84
699.706	529.91
699.899	548.51
700.092	519.06
700.285	544.25
700.477	501.82
700.67	547.93
700.863	576.8
701.056	667.48
701.248	631.44
701.441	627.76
701.634	580.1
701.826	699.44
702.019	603.93
702.212	648.29
702.404	613.81
702.597	620.39
702.79	643.45
702.982	684.33
703.175	688.4
703.367	701.19
703.56	707
703.752	785.66
703.945	729.47
704.137	767.06
704.33	750.01
704.522	765.9
704.715	780.04
704.907	792.44
705.1	807.75
705.292	805.62
705.484	805.23
705.677	855.22
705.869	854.44
706.061	859.09
706.254	885.44
706.446	880.6
706.638	873.62
706.831	953.25
707.023	895.9
707.215	1002.27
707.407	944.34
707.599	971.27
707.792	999.75
707.984	1020.48
708.176	1010.8
708.368	992.58
708.56	1015.06
708.752	1020.1
708.944	1012.54
709.136	1048.96
709.329	1032.11
709.521	1131.69
709.713	1100.31
709.905	1128.4
710.097	1176.64
710.289	1109.22
710.481	1128.98
710.672	1146.61
710.864	1121.04
711.056	1246
711.248	1197.37
711.44	1170.44
711.632	1181.29
711.824	1231.86
712.016	1292.31
712.207	1258.6
712.399	1254.92
712.591	1307.81
712.783	1310.72
712.975	1334.74
713.166	1256.66
713.358	1288.82
713.55	1361.09
713.741	1392.67
713.933	1384.92
714.125	1388.02
714.316	1337.07
714.508	1423.86
714.7	1417.47
714.891	1424.83
715.083	1460.48
715.274	1406.81
715.466	1443.24
715.657	1456.61
715.849	1371.55
716.04	1442.85
716.232	1400.03
716.423	1463.97
716.615	1387.63
716.806	1369.62
716.998	1360.51
717.189	1317.3
717.381	1266.54
717.572	1233.02
717.763	1280.49
717.955	1270.8
718.146	1226.24
718.337	1188.85
718.528	1160.95
718.72	1132.66
718.911	1200.67
719.102	1176.84
719.293	1248.52
719.485	1219.07
719.676	1198.15
719.867	1158.43
720.058	1174.32
720.249	1174.71
720.44	1201.06
720.632	1265.96
720.823	1300.06
721.014	1353.92
721.205	1372.72
721.396	1458.16
721.587	1539.34
721.778	1556
721.969	1578.09
722.16	1624.59
722.351	1641.06
722.542	1722.43
722.733	1730.18
722.924	1669.34
723.115	1743.74
723.305	1707.12
723.496	1713.32
723.687	1605.41
723.878	1636.99
724.069	1665.85
724.26	1662.37
724.45	1630.59
724.641	1613.74
724.832	1622.84
725.023	1620.91
725.213	1630.98
725.404	1648.42
725.595	1619.55
725.785	1626.33
725.976	1668.37
726.167	1696.08
726.357	1646.67
726.548	1788.3
726.739	1734.44
726.929	1776.68
727.12	1803.22
727.31	1775.32
727.501	1773.19
727.691	1791.02
727.882	1806.71
728.072	1853.21
728.263	1795.67
728.453	1910.17
728.644	1888.66
728.834	1899.13
729.024	1863.67
729.215	1838.87
729.405	1889.05
729.596	1981.86
729.786	1965.39
729.976	2012.47
730.167	2016.54
730.357	1981.28
730.547	1969.26
730.737	2001.43
730.928	2067.88
731.118	2099.85
731.308	2040.95
731.498	2068.46
731.688	2161.27
731.879	2158.36
732.069	2201.57
732.259	2267.25
732.449	2249.23
732.639	2327.89
732.829	2347.07
733.019	2402.29
733.209	2433.29
733.399	2426.51
733.589	2520.86
733.779	2566.2
733.969	2547.02
734.159	2628.78
734.349	2634.59
734.539	2693.3
734.729	2684.19
734.919	2718.87
735.109	2750.84
735.299	2692.13
735.488	2735.92
735.678	2792.69
735.868	2744.25
736.058	2751.03
736.248	2729.14
736.437	2698.92
736.627	2659.39
736.817	2832.41
737.007	2782.81
737.196	2864.96
737.386	2829.69
737.576	2812.26
737.765	2879.29
737.955	2838.61
738.144	2936.64
738.334	2919.79
738.524	2867.86
738.713	2917.07
738.903	2916.88
739.092	2965.9
739.282	2968.22
739.471	3011.24
739.661	2974.23
739.85	3030.8
740.04	3049.21
740.229	3035.84
740.419	3071.1
740.608	3078.08
740.797	3062
740.987	3150.73
741.176	3156.55
741.365	3082.15
741.555	3066.84
741.744	3178.83
741.933	3161
742.123	3154.8
742.312	3166.81
742.501	3227.84
742.69	3247.61
742.88	3153.45
743.069	3257.29
743.258	3210.99
743.447	3274.93
743.636	3284.81
743.825	3263.88
744.014	3316.97
744.204	3282.29
744.393	3293.91
744.582	3324.52
744.771	3332.08
744.96	3284.42
745.149	3337.51
745.338	3307.67
745.527	3375.67
745.716	3324.72
745.905	3320.46
746.094	3363.08
746.283	3399.31
746.471	3341.57
746.66	3454.14
746.849	3438.64
747.038	3422.75
747.227	3413.65
747.416	3459.57
747.604	3388.27
747.793	3363.27
747.982	3394.86
748.171	3399.12
748.359	3414.62
748.548	3437.87
748.737	3402.99
748.926	3387.88
749.114	3351.46
749.303	3411.9
749.491	3415.2
749.68	3328.21
749.869	3476.42
750.057	3374.51
750.246	3384.78
750.434	3369.28
750.623	3332.86
750.811	3382.26
751	3390.98
751.188	3385.94
751.377	3367.73
751.565	3359.79
751.754	3377.22
751.942	3325.69
752.131	3390.4
752.319	3365.6
752.507	3349.52
752.696	3369.47
752.884	3407.84
753.072	3352.04
753.261	3372.57
753.449	3372.19
753.637	3359.59
753.825	3457.82
754.014	3387.88
754.202	3371.02
754.39	3407.45
754.578	3409.19
754.766	3353.01
754.955	3334.41
755.143	3440
755.331	3374.9
755.519	3363.08
755.707	3340.61
755.895	3354.94
756.083	3366.18
756.271	3343.9
756.459	3323.75
756.647	3355.33
756.835	3319.87
757.023	3345.45
757.211	3337.12
757.399	3326.85
757.587	3295.08
757.775	3258.07
757.963	3271.83
758.151	3310.77
758.339	3230.56
758.526	3235.79
758.714	3248.96
758.902	3130.97
759.09	3037.97
759.278	2815.16
759.465	2631.49
759.653	2300.76
759.841	2057.22
760.028	1750.33
760.216	1526.55
760.404	1442.66
760.591	1203.19
760.779	999.56
760.967	898.42
761.154	736.84
761.342	769
761.529	757.37
761.717	807.75
761.905	811.24
762.092	847.27
762.28	789.34
762.467	816.27
762.655	734.12
762.842	764.54
763.029	798.45
763.217	801.74
763.404	738.58
763.592	804.26
763.779	742.84
763.966	803.87
764.154	828.29
764.341	896.48
764.528	899.58
764.716	974.37
764.903	1043.34
765.09	1087.33
765.277	1142.35
765.465	1307.62
765.652	1343.65
765.839	1423.86
766.026	1549.8
766.213	1616.06
766.4	1737.54
766.588	1895.06
766.775	1908.23
766.962	2033.01
767.149	2084.54
767.336	2206.02
767.523	2200.02
767.71	2345.33
767.897	2450.72
768.084	2505.17
768.271	2555.74
768.458	2637.3
768.645	2661.13
768.832	2636.72
769.019	2658.42
769.206	2722.55
769.392	2812.06
769.579	2883.17
769.766	2823.69
769.953	2831.05
770.14	2863.79
770.327	2854.49
770.513	2943.04
770.7	2971.13
770.887	2913.39
771.073	2963.19
771.26	2967.64
771.447	2927.15
771.634	2935.87
771.82	3004.07
772.007	2891.11
772.193	2972.87
772.38	2980.82
772.567	2935.29
772.753	2958.54
772.94	2972.68
773.126	3037.2
773.313	3024.8
773.499	3003.1
773.686	2981.2
773.872	2973.45
774.059	3021.12
774.245	2947.88
774.432	2949.24
774.618	2875.42
774.804	2969.19
774.991	2859.14
775.177	2968.8
775.363	2954.47
775.55	2984.89
775.736	2896.15
775.922	2920.76
776.109	2930.44
776.295	2903.51
776.481	2969.19
776.667	2968.42
776.853	2892.08
777.04	2892.08
777.226	2900.22
777.412	2995.15
777.598	2875.61
777.784	2890.72
777.97	2867.09
778.156	2904.29
778.342	2880.84
778.528	2846.94
778.715	2802.18
778.901	2838.61
779.087	2876.77
779.272	2792.11
779.458	2831.24
779.644	2817.49
779.83	2789.2
780.016	2865.73
780.202	2841.51
780.388	2826.21
780.574	2716.55
780.76	2747.55
780.946	2826.79
781.131	2795.21
781.317	2777
781.503	2759.17
781.689	2738.44
781.874	2853.14
782.06	2767.89
782.246	2796.37
782.432	2747.74
782.617	2786.3
782.803	2819.04
782.989	2700.66
783.174	2718.87
783.36	2657.26
783.545	2712.67
783.731	2715.38
783.916	2633.43
784.102	2713.83
784.288	2663.07
784.473	2653.19
784.659	2641.76
784.844	2687.29
785.029	2632.65
785.215	2608.05
785.4	2566.59
785.586	2690
785.771	2564.45
785.956	2628.39
786.142	2609.79
786.327	2579.57
786.512	2558.06
786.698	2586.15
786.883	2534.23
787.068	2541.98
787.254	2614.63
787.439	2523.77
787.624	2520.47
787.809	2520.09
787.994	2517.18
788.18	2563.1
788.365	2468.16
788.55	2489.86
788.735	2466.22
788.92	2497.03
789.105	2472.81
789.29	2506.14
789.475	2443.56
789.66	2438.33
789.845	2418.76
790.03	2395.12
790.215	2453.44
790.4	2434.45
790.585	2490.44
790.77	2420.11
790.955	2356.95
791.14	2402.09
791.325	2469.13
791.51	2355.01
791.695	2402.48
791.879	2372.84
792.064	2353.46
792.249	2439.49
792.434	2409.26
792.618	2420.31
792.803	2465.84
792.988	2398.61
793.173	2391.44
793.357	2405.78
793.542	2349.98
793.727	2413.53
793.911	2427.28
794.096	2411.59
794.281	2390.66
794.465	2480.76
794.65	2430.19
794.834	2467
795.019	2491.02
795.203	2479.4
795.388	2490.06
795.572	2473.2
795.757	2432.51
795.941	2451.69
796.126	2441.42
796.31	2383.88
796.494	2419.73
796.679	2425.34
796.863	2355.01
797.048	2499.36
797.232	2419.92
797.416	2433.68
797.601	2435.42
797.785	2507.69
797.969	2493.93
798.153	2406.55
798.338	2477.07
798.522	2438.33
798.706	2480.17
798.89	2505.36
799.074	2610.57
799.258	2550.31
799.443	2455.57
799.627	2444.14
799.811	2501.1
799.995	2462.35
800.179	2429.8
800.363	2469.52
800.547	2445.49
800.731	2485.41
800.915	2414.88
801.099	2385.43
801.283	2424.38
801.467	2438.33
801.651	2429.03
801.835	2476.49
802.019	2472.62
802.202	2445.49
802.386	2389.89
802.57	2396.28
802.754	2414.3
802.938	2399.19
803.121	2419.92
803.305	2504.2
803.489	2428.06
803.673	2436.97
803.856	2475.52
804.04	2460.22
804.224	2479.79
804.407	2392.79
804.591	2406.74
804.775	2427.67
804.958	2440.65
805.142	2541.79
805.326	2406.74
805.509	2427.28
805.693	2483.47
805.876	2474.17
806.06	2462.93
806.243	2482.31
806.427	2473.39
806.61	2497.22
806.794	2442.39
806.977	2482.5
807.16	2467
807.344	2487.54
807.527	2455.96
807.71	2441.42
807.894	2449.95
808.077	2494.12
808.26	2389.31
808.444	2420.69
808.627	2481.34
808.81	2404.42
808.993	2352.88
809.177	2371.09
809.36	2365.09
809.543	2383.49
809.726	2304.45
809.909	2327.11
810.092	2296.89
810.276	2275.19
810.459	2286.04
810.642	2266.47
810.825	2246.52
811.008	2285.85
811.191	2146.15
811.374	2149.45
811.557	2212.61
811.74	2238.77
811.923	2160.1
812.106	2174.25
812.289	2076.99
812.472	2099.07
812.654	2109.73
812.837	2077.57
813.02	2028.74
813.203	2006.85
813.386	1885.18
813.569	1914.05
813.751	1836.16
813.934	1878.4
814.117	1862.7
814.3	1757.3
814.482	1783.85
814.665	1735.22
814.848	1711
815.03	1678.64
815.213	1674.38
815.396	1618.97
815.578	1650.55
815.761	1583.12
815.943	1653.07
816.126	1557.94
816.309	1555.42
816.491	1476.76
816.674	1441.88
816.856	1467.85
817.039	1457
817.221	1548.06
817.403	1491.48
817.586	1501.36
817.768	1560.46
817.951	1455.45
818.133	1434.52
818.315	1510.47
818.498	1496.33
818.68	1522.68
818.862	1529.46
819.045	1539.92
819.227	1570.72
819.409	1515.51
819.591	1533.33
819.774	1503.11
819.956	1489.74
820.138	1549.41
820.32	1543.02
820.502	1623.04
820.684	1692.98
820.866	1692.01
821.048	1735.41
821.231	1759.82
821.413	1736.57
821.595	1721.65
821.777	1742
821.959	1739.67
822.141	1762.34
822.323	1630.4
822.505	1568.59
822.686	1516.67
822.868	1487.03
823.05	1353.53
823.232	1345.59
823.414	1304.52
823.596	1358.38
823.778	1357.8
823.96	1369.42
824.141	1347.33
824.323	1392.86
824.505	1478.11
824.687	1496.52
824.868	1576.34
825.05	1634.66
825.232	1666.24
825.413	1738.9
825.595	1693.37
825.777	1673.8
825.958	1696.66
826.14	1687.75
826.321	1689.69
826.503	1674.38
826.685	1707.12
826.866	1717.97
827.048	1712.16
827.229	1657.72
827.411	1607.15
827.592	1575.18
827.773	1597.66
827.955	1517.44
828.136	1562.01
828.318	1501.94
828.499	1531.01
828.68	1471.91
828.862	1522.87
829.043	1550.19
829.224	1501.75
829.406	1463.97
829.587	1499.62
829.768	1510.86
829.949	1525.39
830.131	1489.16
830.312	1583.9
830.493	1525.97
830.674	1503.69
830.855	1514.93
831.036	1520.93
831.218	1586.81
831.399	1564.53
831.58	1544.96
831.761	1518.41
831.942	1522.09
832.123	1537.4
832.304	1473.08
832.485	1473.08
832.666	1512.79
832.847	1533.91
833.028	1510.86
833.209	1530.04
833.389	1454.48
833.57	1485.28
833.751	1460.48
833.932	1529.84
834.113	1548.25
834.294	1526.74
834.475	1534.11
834.655	1547.67
834.836	1571.11
835.017	1553.68
835.198	1519.77
835.378	1533.91
835.559	1561.43
835.74	1532.94
835.92	1551.93
836.101	1522.48
836.281	1554.45
836.462	1567.43
836.643	1616.64
836.823	1607.54
837.004	1600.37
837.184	1613.93
837.365	1605.6
837.545	1615.67
837.726	1602.69
837.906	1636.79
838.087	1625.94
838.267	1583.51
838.448	1547.86
838.628	1602.69
838.808	1573.63
838.989	1655.78
839.169	1568.4
839.349	1649.39
839.53	1652.49
839.71	1641.64
839.89	1545.73
840.07	1665.85
840.251	1599.98
840.431	1633.89
840.611	1595.14
840.791	1585.06
840.971	1626.14
841.151	1608.31
841.332	1574.99
841.512	1600.37
841.692	1537.4
841.872	1619.36
842.052	1570.53
842.232	1587.19
842.412	1545.73
842.592	1561.04
842.772	1580.61
842.952	1587.19
843.132	1544.18
843.312	1542.24
843.492	1551.16
843.672	1593.59
843.851	1549.61
844.031	1575.18
844.211	1548.83
844.391	1506.98
844.571	1567.82
844.751	1575.18
844.93	1553.68
845.11	1506.4
845.29	1584.67
845.47	1568.21
845.649	1537.01
845.829	1518.22
846.009	1528.1
846.188	1563.94
846.368	1563.75
846.547	1557.36
846.727	1594.75
846.907	1499.04
847.086	1533.72
847.266	1612.19
847.445	1506.79
847.625	1539.14
847.804	1528.49
847.984	1517.25
848.163	1522.09
848.343	1497.88
848.522	1494.39
848.701	1523.06
848.881	1480.63
849.06	1484.51
849.239	1505.04
849.419	1494.19
849.598	1418.05
849.777	1426.38
849.957	1442.66
850.136	1382.21
850.315	1332.22
850.494	1364.77
850.674	1371.75
850.853	1423.09
851.032	1388.6
851.211	1445.95
851.39	1454.48
851.569	1382.4
851.748	1357.22
851.927	1425.8
852.107	1357.99
852.286	1382.79
852.465	1350.24
852.644	1417.08
852.823	1409.33
853.002	1377.95
853.181	1398.48
853.359	1407.59
853.538	1351.98
853.717	1408.75
853.896	1294.44
854.075	1264.02
854.254	1211.91
854.433	1185.94
854.611	1232.83
854.79	1148.16
854.969	1268.29
855.148	1265.96
855.327	1200.28
855.505	1229.34
855.684	1250.65
855.863	1287.47
856.041	1253.75
856.22	1294.83
856.399	1246.78
856.577	1361.67
856.756	1322.15
856.934	1451.96
857.113	1442.08
857.291	1360.51
857.47	1328.15
857.648	1379.11
857.827	1338.62
858.005	1398.68
858.184	1335.52
858.362	1401
858.541	1370.2
858.719	1330.67
858.898	1321.76
859.076	1320.98
859.254	1401.58
859.433	1341.91
859.611	1305.87
859.789	1308.78
859.967	1349.85
860.146	1375.43
860.324	1272.74
860.502	1275.65
860.68	1265.57
860.859	1291.92
861.037	1306.65
861.215	1280.1
861.393	1306.65
861.571	1307.81
861.749	1248.91
861.927	1323.12
862.105	1272.94
862.283	1295.6
862.461	1263.64
862.639	1237.67
862.817	1265.19
862.995	1283.59
863.173	1235.15
863.351	1262.28
863.529	1288.24
863.707	1315.17
863.885	1262.09
864.063	1209
864.241	1221.59
864.418	1277.2
864.596	1254.72
864.774	1202.02
864.952	1224.69
865.129	1238.06
865.307	1203.38
865.485	1156.11
865.663	1229.92
865.84	1143.51
866.018	1151.07
866.196	1052.45
866.373	1082.68
866.551	1041.41
866.728	1015.25
866.906	1046.64
867.084	1055.94
867.261	1107.09
867.439	1115.03
867.616	1131.5
867.794	1125.3
867.971	1173.74
868.149	1150.87
868.326	1200.28
868.503	1161.53
868.681	1133.05
868.858	1141.57
869.035	1117.74
869.213	1195.82
869.39	1162.69
869.567	1201.44
869.745	1136.92
869.922	1159.98
870.099	1165.41
870.276	1157.27
870.454	1144.48
870.631	1166.18
870.808	1134.79
870.985	1185.36
871.162	1214.23
871.339	1149.71
871.517	1108.44
871.694	1104.96
871.871	1138.09
872.048	1140.22
872.225	1135.76
872.402	1130.34
872.579	1107.67
872.756	1137.31
872.933	1076.67
873.11	1087.13
873.287	1141.57
873.463	1086.36
873.64	1077.06
873.817	1090.23
873.994	1096.82
874.171	1053.23
874.348	1107.67
874.524	1044.51
874.701	1094.88
874.878	1053.23
875.055	1070.86
875.231	1029.59
875.408	1097.01
875.585	1017
875.762	1068.14
875.938	1036.37
876.115	1039.28
876.291	1049.54
876.468	1030.17
876.645	994.52
876.821	1018.74
876.998	1022.81
877.174	1052.64
877.351	1006.92
877.527	1016.22
877.704	1026.49
877.88	1036.37
878.057	990.84
878.233	1065.04
878.409	987.55
878.586	1038.11
878.762	1007.5
878.938	999.17
879.115	920.7
879.291	1017.77
879.467	944.92
879.644	984.64
879.82	1006.73
879.996	980.76
880.172	918.18
880.349	969.72
880.525	1014.09
880.701	915.67
880.877	950.73
881.053	973.6
881.229	939.3
881.405	1019.32
881.581	947.05
881.757	973.21
881.933	992.78
882.109	996.65
882.285	942.6
882.461	957.32
882.637	983.09
882.813	922.06
882.989	938.72
883.165	1013.31
883.341	948.02
883.517	973.98
883.693	975.73
883.869	994.71
884.044	931.55
884.22	991.23
884.396	1029.01
884.572	991.23
884.747	1010.8
884.923	1004.4
885.099	984.45
885.275	1029.4
885.45	929.62
885.626	954.8
885.801	952.48
885.977	964.3
886.153	927.87
886.328	974.18
886.504	962.75
886.679	953.06
886.855	927.87
887.03	965.07
887.206	956.55
887.381	984.83
887.557	981.35
887.732	966.81
887.908	998.2
888.083	988.32
888.258	945.89
888.434	958.48
888.609	963.71
888.784	985.03
888.96	934.27
889.135	951.12
889.31	956.16
889.485	958.29
889.661	916.44
889.836	960.61
890.011	975.73
890.186	939.11
890.361	921.67
890.537	977.86
890.712	980.38
890.887	964.68
891.062	934.46
891.237	970.5
891.412	925.55
891.587	942.4
891.762	959.06
891.937	990.26
892.112	903.46
892.287	971.08
892.462	881.57
892.637	864.71
892.812	880.4
892.987	864.52
893.161	877.3
893.336	858.51
893.511	860.64
893.686	875.75
893.861	849.6
894.035	873.04
894.21	866.84
894.385	809.49
894.56	860.64
894.734	792.64
894.909	781.01
895.084	782.37
895.258	796.9
895.433	768.03
895.608	758.73
895.782	732.96
895.957	738.97
896.131	724.44
896.306	682.78
896.48	674.06
896.655	713.59
896.829	644.23
897.004	632.02
897.178	640.93
897.353	605.48
897.527	653.53
897.701	632.99
897.876	619.81
898.05	652.36
898.224	678.13
898.399	684.53
898.573	628.92
898.747	537.08
898.921	584.55
899.096	489.62
899.27	513.06
899.444	505.5
899.618	562.08
899.792	529.91
899.967	562.66
900.141	586.68
900.315	538.63
900.489	528.75
900.663	558.01
900.837	548.32
901.011	509.96
901.185	603.15
901.359	564.21
901.533	553.36
901.707	565.56
901.881	556.65
902.055	498.33
902.229	521.39
902.403	592.5
902.576	570.21
902.75	543.48
902.924	676.58
903.098	600.44
903.272	636.09
903.446	702.35
903.619	664.57
903.793	689.76
903.967	662.63
904.14	726.57
904.314	718.04
904.488	682.59
904.661	694.21
904.835	694.41
905.009	701.77
905.182	760.09
905.356	725.99
905.529	736.84
905.703	655.27
905.876	672.51
906.05	660.89
906.223	633.57
906.397	599.08
906.57	587.65
906.744	561.3
906.917	551.61
907.09	548.51
907.264	558.78
907.437	521.58
907.61	484.38
907.784	516.93
907.957	524.49
908.13	495.82
908.304	539.8
908.477	496.4
908.65	506.67
908.823	473.15
908.996	545.03
909.17	506.08
909.343	486.71
909.516	510.73
909.689	490.78
909.862	461.33
910.035	496.98
910.208	453
910.381	441.57
910.554	537.47
910.727	507.63
910.9	487.29
911.073	446.41
911.246	513.45
911.419	542.9
911.592	491.55
911.765	489.81
911.938	451.06
912.11	481.87
912.283	482.83
912.456	511.7
912.629	483.03
912.802	447.96
912.974	422.77
913.147	384.6
913.32	339.85
913.493	394.1
913.665	402.62
913.838	424.32
914.01	418.9
914.183	433.82
914.356	407.66
914.528	458.23
914.701	496.2
914.873	442.73
915.046	413.28
915.218	380.15
915.391	337.52
915.563	363.29
915.736	383.44
915.908	421.8
916.081	428.78
916.253	411.92
916.425	433.82
916.598	427.62
916.77	458.42
916.942	409.02
917.115	342.37
917.287	401.27
917.459	382.47
917.632	327.64
917.804	323.38
917.976	391
918.148	390.8
918.32	379.76
918.493	445.44
918.665	445.63
918.837	420.64
919.009	484
919.181	454.93
919.353	457.07
919.525	428.97
919.697	418.12
919.869	476.05
920.041	490.97
920.213	553.94
920.385	505.12
920.557	444.28
920.729	457.84
920.901	481.48
921.073	463.46
921.244	438.66
921.416	477.6
921.588	448.15
921.76	443.12
921.932	495.43
922.103	475.86
922.275	450.28
922.447	486.71
922.619	380.15
922.79	430.13
922.962	427.62
923.134	440.79
923.305	369.49
923.477	397.78
923.648	384.6
923.82	373.75
923.991	342.56
924.163	322.99
924.335	397.2
924.506	342.75
924.677	429.17
924.849	369.3
925.02	399.91
925.192	391.97
925.363	383.25
925.535	402.62
925.706	359.42
925.877	390.22
926.049	376.66
926.22	403.79
926.391	388.87
926.562	416.38
926.734	366.2
926.905	418.51
927.076	338.3
927.247	359.03
927.419	312.14
927.59	298.58
927.761	317.37
927.932	293.93
928.103	290.64
928.274	254.99
928.445	253.63
928.616	265.26
928.787	271.65
928.958	310.21
929.129	262.93
929.3	259.06
929.471	220.31
929.642	169.54
929.813	174.19
929.984	200.35
930.155	171.68
930.326	205.78
930.496	169.93
930.667	155.79
930.838	204.61
931.009	139.9
931.18	139.51
931.35	153.08
931.521	169.35
931.692	97.86
931.863	62.02
932.033	126.92
932.204	106
932.374	122.08
932.545	75
932.716	126.53
932.886	104.83
933.057	45.74
933.227	62.98
933.398	137.77
933.568	45.93
933.739	17.84
933.909	47.68
934.08	86.81
934.25	5.05
934.421	30.43
934.591	70.73
934.761	32.95
934.932	18.81
935.102	47.1
935.272	51.36
935.443	24.43
935.613	10.67
935.783	70.15
935.953	19.58
936.123	179.62
936.294	14.16
936.464	41.67
936.634	31.4
936.804	6.6
936.974	11.83
937.144	34.7
937.314	43.42
937.484	-2.7
937.655	2.34
937.825	75.58
937.995	22.3
938.165	82.94
938.334	53.1
938.504	49.42
938.674	33.15
938.844	52.91
939.014	106.58
939.184	103.09
939.354	133.9
939.524	110.84
939.694	97.28
939.863	78.48
940.033	139.51
940.203	142.42
940.373	98.44
940.542	121.3
940.712	69.18
940.882	106.58
941.051	114.91
941.221	110.84
941.391	135.25
941.56	85.85
941.73	78.29
941.899	171.09
942.069	66.47
942.238	119.95
942.408	77.13
942.577	92.63
942.747	78.29
942.916	51.55
943.086	61.82
943.255	104.83
943.425	76.16
943.594	63.37
943.763	27.72
943.933	34.89
944.102	3.12
944.271	42.06
944.441	81.2
944.61	70.35
944.779	71.32
944.948	152.69
945.117	50.2
945.287	56.4
945.456	16.87
945.625	48.07
945.794	99.8
945.963	37.6
946.132	115.1
946.301	37.99
946.47	76.74
946.639	32.76
946.808	27.92
946.977	83.33
947.146	125.18
947.315	54.85
947.484	95.92
947.653	60.85
947.822	51.94
947.991	30.82
948.16	125.18
948.329	84.49
948.498	65.12
948.666	56.98
948.835	108.32
949.004	27.92
949.173	16.68
949.341	61.63
949.51	95.15
949.679	89.53
949.847	77.71
950.016	134.86
950.185	116.85
950.353	59.69
950.522	81.2
950.69	113.75
950.859	69.77
951.028	109.29
951.196	109.29
951.365	28.88
951.533	58.53
951.701	101.35
951.87	81.97
952.038	33.15
952.207	62.79
952.375	133.9
952.543	46.52
952.712	73.06
952.88	46.32
953.048	130.99
953.217	68.22
953.385	68.02
953.553	101.15
953.721	44.58
953.89	54.65
954.058	24.04
954.226	61.24
954.394	93.98
954.562	16.87
954.73	56.98
954.898	64.34
955.067	87.2
955.235	49.42
955.403	89.14
955.571	140.87
955.739	77.52
955.907	39.15
956.075	57.95
956.243	27.14
956.41	93.01
956.578	0.6
956.746	29.27
956.914	64.34
957.082	111.81
957.25	98.25
957.418	35.47
957.585	85.65
957.753	122.27
957.921	46.32
958.089	60.08
958.256	99.6
958.424	75.38
958.592	89.14
958.759	48.84
958.927	83.71
959.095	50.2
959.262	61.24
959.43	91.46
959.597	33.53
959.765	66.47
959.932	44
960.1	102.12
960.267	73.45
960.435	79.45
960.602	90.88
960.77	70.35
960.937	28.88
961.104	79.45
961.272	45.74
961.439	81.97
961.606	73.83
961.774	100.96
961.941	66.28
962.108	52.52
962.275	107.55
962.443	100.96
962.61	86.81
962.777	162.76
962.944	94.76
963.111	115.68
963.278	97.86
963.446	98.44
963.613	74.03
963.78	93.6
963.947	128.86
964.114	81.39
964.281	152.88
964.448	89.33
964.615	66.28
964.782	79.07
964.949	143
965.116	116.07
965.282	131.76
965.449	90.69
965.616	34.12
965.783	105.61
965.95	99.02
966.117	72.09
966.283	79.84
966.45	122.85
966.617	124.6
966.784	151.91
966.95	112.78
967.117	129.83
967.284	45.74
967.45	73.83
967.617	169.35
967.784	151.72
967.95	155.21
968.117	93.6
968.283	144.75
968.45	173.61
968.616	136.41
968.783	147.26
968.949	123.82
969.116	144.75
969.282	98.83
969.449	116.65
969.615	110.84
969.781	53.3
969.948	88.36
970.114	74.03
970.28	156.56
970.447	107.93
970.613	178.07
970.779	119.36
970.945	140.1
971.112	135.25
971.278	107.93
971.444	94.95
971.61	138.93
971.776	114.33
971.942	114.91
972.108	149.98
972.275	130.6
972.441	129.05
972.607	187.18
972.773	78.68
972.939	135.06
973.105	81.39
973.271	66.28
973.437	97.66
973.602	119.56
973.768	133.51
973.934	98.44
974.1	97.28
974.266	57.37
974.432	128.86
974.598	100.18
974.763	127.5
974.929	110.06
975.095	161.21
975.261	62.02
975.426	62.02
975.592	113.16
975.758	169.35
975.923	45.93
976.089	80.23
976.255	117.23
976.42	114.13
976.586	122.46
976.751	109.48
976.917	178.07
977.082	119.36
977.248	82.94
977.413	40.32
977.579	78.48
977.744	109.68
977.91	79.07
978.075	79.84
978.24	105.41
978.406	94.37
978.571	83.33
978.736	66.28
978.902	106.38
979.067	43.22
979.232	59.5
979.397	125.37
979.563	115.88
979.728	59.11
979.893	84.88
980.058	44.38
980.223	120.33
980.388	114.13
980.554	106.77
980.719	88.56
980.884	111.23
981.049	137.58
981.214	76.35
981.379	122.66
981.544	74.61
981.709	94.95
981.874	78.48
982.039	114.71
982.204	145.91
982.368	109.87
982.533	42.83
982.698	101.15
982.863	142.61
983.028	103.67
983.193	120.53
983.357	99.41
983.522	108.51
983.687	86.81
983.852	93.98
984.016	75.58
984.181	106.77
984.346	117.23
984.51	118.98
984.675	125.18
984.839	131.76
985.004	104.25
985.168	116.26
985.333	101.35
985.498	90.88
985.662	132.54
985.827	115.1
985.991	92.82
986.155	92.24
986.32	102.7
986.484	156.56
986.649	103.67
986.813	54.07
986.977	93.4
987.142	117.04
987.306	71.9
987.47	68.41
987.634	106
987.799	94.95
987.963	121.11
988.127	111.81
988.291	174
988.455	95.73
988.62	72.28
988.784	101.35
988.948	105.8
989.112	75.19
989.276	115.3
989.44	112.78
989.604	57.95
989.768	98.25
989.932	142.42
990.096	63.95
990.26	86.81
990.424	51.17
990.588	93.6
990.752	148.43
990.915	95.53
991.079	87.59
991.243	57.37
991.407	97.28
991.571	75.38
991.734	91.66
991.898	112.97
992.062	138.74
992.226	84.68
992.389	62.4
992.553	20.75
992.717	96.11
992.88	83.52
993.044	65.31
993.207	89.91
993.371	101.35
993.535	108.9
993.698	86.04
993.862	124.79
994.025	129.83
994.189	70.93
994.352	91.27
994.515	99.21
994.679	109.29
994.842	95.53
995.006	103.86
995.169	62.4
995.332	58.53
995.496	95.73
995.659	50.39
995.822	73.45
995.985	75.97
996.149	126.34
996.312	57.37
996.475	139.9
996.638	71.9
996.801	104.83
996.964	139.32
997.128	61.24
997.291	72.28
997.454	88.36
997.617	14.16
997.78	119.17
997.943	78.68
998.106	112.97
998.269	51.75
998.432	71.51
998.595	68.41
998.758	23.85
998.92	44.97
999.083	43.61
999.246	76.55
999.409	24.43
999.572	32.37
999.735	66.47
999.897	67.44
1000.06	66.86
1000.223	58.92
1000.386	93.01
1000.548	74.03
1000.711	84.88
1000.874	80.03
1001.036	22.1
1001.199	103.86
1001.361	41.28
1001.524	59.11
1001.687	74.61
1001.849	64.53
1002.012	102.31
1002.174	51.75
1002.337	97.08
1002.499	55.82
1002.661	92.05
1002.824	18.03
1002.986	46.32
1003.149	51.36
1003.311	41.28
1003.473	99.02
1003.636	34.7
1003.798	62.79
1003.96	71.9
1004.123	46.13
1004.285	49.42
1004.447	47.29
1004.609	69.18
1004.771	118.4
1004.933	26.95
1005.096	2.34
1005.258	11.25
1005.42	26.17
1005.582	121.3
1005.744	78.48
1005.906	33.53
1006.068	47.48
1006.23	33.53
1006.392	-2.12
1006.554	20.17
1006.716	110.26
1006.878	84.3
1007.04	8.73
1007.202	37.02
1007.363	45.35
1007.525	64.15
1007.687	50
1007.849	84.49
1008.011	9.7
1008.172	40.32
1008.334	34.31
1008.496	79.84
1008.658	14.74
1008.819	17.07
1008.981	8.35
1009.143	12.61
1009.304	41.09
1009.466	78.1
1009.627	115.88
1009.789	139.71
1009.95	78.87
1010.112	10.09
1010.273	33.92
1010.435	8.73
1010.596	39.54
1010.758	17.65
1010.919	36.44
1011.081	-3.28
1011.242	41.48
1011.403	31.98
1011.565	39.93
1011.726	64.15
1011.887	14.74
1012.049	44
1012.21	71.12
1012.371	105.03
1012.532	-22.07
1012.693	45.35
1012.855	25.78
1013.016	40.51
1013.177	65.12
1013.338	47.68
1013.499	87.4
1013.66	78.87
1013.821	71.12
1013.982	47.1
1014.143	57.17
1014.304	42.45
1014.465	62.4
1014.626	64.34
1014.787	31.02
1014.948	119.36
1015.109	-36.02
1015.27	82.16
1015.431	3.89
1015.592	-16.65
1015.752	79.26
1015.913	48.26
1016.074	68.22
1016.235	13.58
1016.395	39.93
1016.556	20.17
1016.717	22.3
1016.877	65.5
1017.038	6.8
1017.199	48.45
1017.359	49.23
1017.52	40.12
1017.681	26.56
1017.841	31.6
1018.002	40.7
1018.162	19.78
1018.323	62.79
1018.483	19.58
1018.644	39.35
1018.804	-0.57
1018.964	23.85
1019.125	-7.93
1019.285	42.64
1019.446	14.35
1019.606	4.86
1019.766	-2.7
1019.926	32.57
1020.087	28.11
1020.247	6.99
1020.407	71.9
1020.567	63.57
1020.728	16.29
1020.888	0.21
1021.048	-9.48
1021.208	2.73
1021.368	-12
1021.528	51.17
1021.688	67.44
1021.848	59.69
1022.008	41.87
1022.168	13.97
1022.328	17.07
1022.488	15.71
1022.648	16.48
1022.808	29.47
1022.968	38.77
1023.128	1.76
1023.288	13.77
1023.448	10.28
1023.608	37.02
1023.767	70.73
1023.927	13.97
1024.087	-12
1024.247	-2.89
1024.406	4.08
1024.566	-3.86
1024.726	9.9
1024.885	9.7
1025.045	52.33
1025.205	16.87
1025.364	14.93
1025.524	35.86
1025.683	15.71
1025.843	39.73
1026.003	53.1
1026.162	72.87
1026.321	49.81
1026.481	11.25
1026.64	20.75
1026.8	89.14
1026.959	19.39
1027.119	37.8
1027.278	25.4
1027.437	6.99
1027.597	36.83
1027.756	42.83
1027.915	10.87
1028.074	38.57
1028.234	30.05
1028.393	-3.86
1028.552	20.75
1028.711	-74.58
1028.87	39.54
1029.03	-37.57
1029.189	2.53
1029.348	-21.1
1029.507	16.68
1029.666	16.29
1029.825	-12.96
1029.984	7.96
1030.143	27.53
1030.302	17.84
1030.461	-26.14
1030.62	41.67
1030.779	34.5
1030.938	-9.09
1031.097	-7.73
1031.255	41.67
1031.414	65.31
1031.573	55.43
1031.732	-23.81
1031.891	-26.14
1032.049	62.21
1032.208	47.1
1032.367	2.92
1032.525	1.18
1032.684	20.36
1032.843	37.6
1033.001	-36.6
1033.16	140.29
1033.319	55.62
1033.477	32.57
1033.636	-16.06
1033.794	-17.03
1033.953	38.96
1034.111	43.03
1034.27	-1.34
1034.428	33.53
1034.587	-14.32
1034.745	51.94
1034.903	18.03
1035.062	32.76
1035.22	-21.49
1035.378	31.98
1035.537	-7.73
1035.695	26.95
1035.853	19.2
1036.011	32.57
1036.17	10.67
1036.328	-38.35
1036.486	63.95
1036.644	3.12
1036.802	-55.78
1036.96	-12
1037.119	32.95
1037.277	-13.93
1037.435	-20.13
1037.593	15.9
1037.751	21.33
1037.909	64.15
1038.067	64.15
