Data from oakcork_FLMT105791__49__17-27-24-066.txt Node

Date: Mon Mar 20 17:27:24 GMT 2023
User: antho
Spectrometer: FLMT10579
Trigger mode: 0
Integration Time (sec): 1.000000E-1
Scans to average: 10
Electric dark correction enabled: true
Nonlinearity correction enabled: false
Boxcar width: 0
XAxis mode: Wavelengths
Number of Pixels in Spectrum: 3648
>>>>>Begin Spectral Data<<<<<
345.248	-174.05
345.464	-174.05
345.681	-174.05
345.898	-164.56
346.114	-173.47
346.331	-43.27
346.548	16.6
346.764	-3.94
346.981	2.65
347.197	-10.72
347.414	12.34
347.631	-26.8
347.847	50.7
348.064	17.57
348.28	-4.13
348.497	-33.78
348.713	22.8
348.93	42.17
349.146	30.35
349.363	2.45
349.579	18.34
349.796	4.78
350.012	-16.34
350.229	40.62
350.445	12.14
350.661	-16.15
350.878	-1.23
351.094	5.17
351.311	24.93
351.527	19.12
351.743	-8.01
351.96	52.05
352.176	18.54
352.392	40.23
352.609	35.39
352.825	-14.6
353.041	26.09
353.257	-3.16
353.474	-2.2
353.69	29.58
353.906	33.84
354.122	-28.93
354.339	72.59
354.555	-5.1
354.771	-2.2
354.987	84.6
355.203	79.37
355.42	-5.68
355.636	-0.45
355.852	-5.49
356.068	-15.18
356.284	-13.05
356.5	70.46
356.716	19.7
356.932	19.89
357.148	28.8
357.364	11.56
357.58	47.79
357.796	72.2
358.012	60.19
358.228	20.47
358.444	-45.4
358.66	45.08
358.876	22.02
359.092	-4.33
359.308	24.15
359.524	20.86
359.74	11.95
359.956	-2
360.172	30.16
360.388	41.98
360.604	-20.21
360.819	71.43
361.035	17.57
361.251	46.43
361.467	-12.08
361.683	68.91
361.898	12.53
362.114	22.41
362.33	16.6
362.546	56.9
362.762	42.37
362.977	30.74
363.193	-21.96
363.409	23.96
363.624	-9.75
363.84	-5.1
364.056	-5.1
364.271	29
364.487	19.31
364.703	45.47
364.918	2.26
365.134	2.84
365.35	14.66
365.565	115.6
365.781	36.36
365.996	37.91
366.212	76.85
366.427	38.88
366.643	14.85
366.858	22.8
367.074	-1.61
367.289	75.3
367.505	120.25
367.72	-1.81
367.936	-6.07
368.151	48.18
368.367	25.32
368.582	30.35
368.798	9.62
369.013	83.63
369.228	23.57
369.444	50.89
369.659	91.77
369.874	36.55
370.09	68.72
370.305	-51.8
370.52	15.24
370.736	54.18
370.951	6.91
371.166	63.29
371.381	89.64
371.597	72.98
371.812	-7.62
372.027	12.34
372.242	18.34
372.458	62.9
372.673	22.8
372.888	20.09
373.103	44.5
373.318	107.27
373.533	39.65
373.749	39.27
373.964	-42.88
374.179	53.22
374.394	-12.08
374.609	78.79
374.824	1.87
375.039	55.93
375.254	7.69
375.469	83.05
375.684	41.98
375.899	78.21
376.114	25.7
376.329	39.27
376.544	67.75
376.759	48.57
376.974	18.15
377.189	33.65
377.404	19.31
377.619	50.5
377.834	-21.57
378.049	2.65
378.264	-2.97
378.478	51.67
378.693	0.13
378.908	80.53
379.123	29.19
379.338	77.43
379.553	33.45
379.767	34.62
379.982	58.64
380.197	29.97
380.412	52.25
380.626	58.83
380.841	100.3
381.056	46.43
381.271	121.61
381.485	10.01
381.7	-8.78
381.915	41.4
382.129	19.89
382.344	54.77
382.559	29.19
382.773	96.42
382.988	-13.63
383.202	46.05
383.417	25.7
383.632	115.99
383.846	34.42
384.061	33.07
384.275	-4.52
384.49	37.91
384.704	63.29
384.919	47.6
385.133	14.47
385.348	76.85
385.562	19.5
385.777	57.67
385.991	41.4
386.206	16.21
386.42	20.28
386.634	85.57
386.849	63.29
387.063	69.68
387.277	14.47
387.492	35
387.706	27.25
387.92	10.59
388.135	81.12
388.349	58.25
388.563	36.36
388.778	30.93
388.992	70.07
389.206	70.07
389.42	113.47
389.635	50.5
389.849	67.17
390.063	73.56
390.277	66.39
390.491	88.48
390.706	79.95
390.92	87.32
391.134	48.57
391.348	70.07
391.562	38.49
391.776	57.48
391.99	34.62
392.205	76.66
392.419	36.55
392.633	49.53
392.847	96.42
393.061	18.92
393.275	88.87
393.489	61.35
393.703	55.93
393.917	70.85
394.131	48.76
394.345	64.84
394.559	85.38
394.773	24.74
394.986	61.93
395.2	71.62
395.414	101.65
395.628	30.93
395.842	70.85
396.056	50.12
396.27	-11.69
396.484	85.18
396.697	63.68
396.911	117.93
397.125	82.86
397.339	105.14
397.553	76.66
397.766	119.48
397.98	87.32
398.194	102.82
398.408	70.65
398.621	97.39
398.835	120.25
399.049	84.8
399.262	135.36
399.476	103.4
399.69	141.95
399.903	136.91
400.117	90.03
400.331	137.88
400.544	66.2
400.758	190.58
400.971	107.27
401.185	145.25
401.398	44.5
401.612	143.89
401.826	120.83
402.039	108.05
402.253	83.83
402.466	135.75
402.68	139.05
402.893	104.75
403.106	126.26
403.32	109.98
403.533	117.73
403.747	109.02
403.96	127.81
404.174	165.59
404.387	75.69
404.6	142.15
404.814	153.96
405.027	83.83
405.24	94.29
405.454	92.35
405.667	134.78
405.88	34.42
406.094	112.7
406.307	149.31
406.52	105.72
406.733	102.23
406.947	60
407.16	174.11
407.373	152.61
407.586	95.26
407.799	65.62
408.012	153.77
408.226	115.22
408.439	176.44
408.652	74.33
408.865	149.7
409.078	168.11
409.291	138.66
409.504	81.31
409.717	123.93
409.93	139.24
410.143	121.61
410.357	45.47
410.57	81.5
410.783	96.23
410.996	126.84
411.209	140.98
411.421	137.11
411.634	122.96
411.847	87.7
412.06	120.45
412.273	117.35
412.486	132.85
412.699	205.69
412.912	114.05
413.125	154.16
413.338	119.28
413.55	165.01
413.763	134.2
413.976	146.41
414.189	115.6
414.402	114.63
414.615	183.8
414.827	112.31
415.04	162.88
415.253	140.6
415.466	172.18
415.678	180.12
415.891	146.99
416.104	117.54
416.316	149.12
416.529	129.16
416.742	145.63
416.954	176.83
417.167	160.94
417.38	131.68
417.592	138.46
417.805	103.4
418.017	95.65
418.23	163.26
418.442	126.84
418.655	113.86
418.868	156.29
419.08	174.11
419.293	190
419.505	142.73
419.718	170.24
419.93	170.63
420.142	121.03
420.355	197.75
420.567	176.44
420.78	161.13
420.992	139.05
421.205	199.5
421.417	121.03
421.629	145.44
421.842	123.93
422.054	108.43
422.266	181.28
422.479	183.8
422.691	131.3
422.903	175.86
423.115	122.19
423.328	158.81
423.54	147.96
423.752	170.05
423.964	154.74
424.177	174.7
424.389	177.41
424.601	251.03
424.813	172.76
425.025	185.55
425.238	144.47
425.45	128.39
425.662	143.5
425.874	422.11
426.086	150.86
426.298	179.54
426.51	181.28
426.722	161.33
426.934	137.69
427.146	187.68
427.358	144.08
427.57	199.5
427.782	133.62
427.994	178.96
428.206	130.13
428.418	120.25
428.63	172.56
428.842	209.96
429.054	146.8
429.266	212.86
429.478	134.4
429.69	173.15
429.902	95.65
430.114	169.08
430.325	133.81
430.537	128.39
430.749	152.61
430.961	101.85
431.173	165.98
431.384	165.78
431.596	71.23
431.808	178.38
432.02	187.68
432.231	203.56
432.443	202.4
432.655	188.26
432.867	155.32
433.078	195.43
433.29	237.66
433.502	214.61
433.713	208.99
433.925	200.66
434.136	221.58
434.348	189.42
434.56	105.92
434.771	296.17
434.983	126.84
435.194	171.4
435.406	190.39
435.617	239.21
435.829	275.06
436.04	214.61
436.252	226.23
436.463	228.56
436.675	218.68
436.886	231.08
437.098	227.39
437.309	249.29
437.521	232.63
437.732	255.68
437.943	225.65
438.155	205.31
438.366	151.45
438.578	276.41
438.789	217.32
439	230.69
439.211	203.95
439.423	233.01
439.634	246.96
439.845	251.03
440.057	252.19
440.268	256.46
440.479	205.89
440.69	241.93
440.902	221.39
441.113	208.02
441.324	212.09
441.535	244.64
441.746	289.39
441.957	201.82
442.168	218.09
442.38	248.32
442.591	271.18
442.802	245.41
443.013	238.24
443.224	265.37
443.435	240.96
443.646	264.01
443.857	243.67
444.068	237.28
444.279	236.31
444.49	356.62
444.701	259.36
444.912	348.49
445.123	302.76
445.334	265.18
445.545	296.17
445.756	261.69
445.967	232.82
446.178	249.87
446.388	310.71
446.599	264.01
446.81	298.89
447.021	252.19
447.232	303.34
447.443	313.22
447.653	249.09
447.864	306.06
448.075	308.19
448.286	334.15
448.496	284.36
448.707	319.81
448.918	279.51
449.129	342.67
449.339	252.58
449.55	314
449.761	259.17
449.971	354.88
450.182	268.08
450.393	320.01
450.603	277.19
450.814	325.62
451.024	319.81
451.235	348.87
451.446	376.77
451.656	366.12
451.867	276.41
452.077	325.04
452.288	382
452.498	376.58
452.709	294.04
452.919	332.21
453.13	267.69
453.34	336.67
453.55	248.32
453.761	344.22
453.971	330.27
454.182	345.19
454.392	336.86
454.602	379.68
454.813	346.55
455.023	329.31
455.233	272.15
455.444	324.07
455.654	222.94
455.864	292.49
456.075	303.73
456.285	277.58
456.495	309.93
456.705	321.36
456.916	378.9
457.126	400.41
457.336	308.38
457.546	252.78
457.756	284.74
457.967	354.11
458.177	322.91
458.387	347.32
458.597	288.81
458.807	304.89
459.017	311.09
459.227	311.67
459.437	312.45
459.647	359.72
459.857	348.1
460.068	304.51
460.278	359.72
460.488	370.19
460.698	409.32
460.908	340.16
461.117	301.41
461.327	330.66
461.537	341.12
461.747	340.74
461.957	332.99
462.167	430.64
462.377	384.52
462.587	373.48
462.797	416.1
463.007	338.8
463.216	386.46
463.426	409.71
463.636	396.54
463.846	331.63
464.056	363.21
464.265	397.7
464.475	336.67
464.685	382.59
464.895	366.12
465.104	354.88
465.314	385.3
465.524	334.54
465.733	331.44
465.943	416.88
466.153	422.5
466.362	407
466.572	373.87
466.782	344.81
466.991	381.62
467.201	425.6
467.41	322.91
467.62	377.74
467.829	385.3
468.039	366.31
468.249	378.13
468.458	390.72
468.668	407.19
468.877	391.69
469.086	418.82
469.296	428.89
469.505	389.95
469.715	463.77
469.924	394.02
470.134	424.44
470.343	449.62
470.552	381.42
470.762	394.02
470.971	344.81
471.18	414.55
471.39	411.65
471.599	349.26
471.808	448.85
472.018	377.94
472.227	469.19
472.436	478.1
472.645	448.65
472.855	372.71
473.064	471.13
473.273	451.56
473.482	460.28
473.691	479.07
473.901	464.15
474.11	443.04
474.319	534.29
474.528	462.99
474.737	488.57
474.946	488.76
475.155	469.77
475.364	512.4
475.573	479.07
475.783	491.86
475.992	497.28
476.201	547.27
476.41	496.12
476.619	461.83
476.828	466.28
477.037	484.88
477.245	467.83
477.454	516.08
477.663	478.88
477.872	512.78
478.081	558.7
478.29	489.15
478.499	582.53
478.708	517.43
478.917	589.12
479.125	548.63
479.334	552.7
479.543	521.7
479.752	534.48
479.961	549.21
480.169	574.98
480.378	526.54
480.587	660.23
480.796	571.88
481.004	543.2
481.213	587.57
481.422	564.51
481.63	561.41
481.839	599.97
482.048	640.27
482.256	596.1
482.465	587.76
482.674	612.56
482.882	634.07
483.091	706.34
483.299	608.88
483.508	625.35
483.716	597.65
483.925	633.88
484.134	590.48
484.342	590.67
484.551	641.63
484.759	614.7
484.967	627.1
485.176	650.34
485.384	652.48
485.593	683.86
485.801	644.53
486.01	581.95
486.218	583.11
486.426	533.52
486.635	567.42
486.843	544.17
487.051	554.63
487.26	586.02
487.468	605.59
487.676	652.48
487.885	606.95
488.093	626.32
488.301	670.49
488.509	670.11
488.717	699.36
488.926	683.86
489.134	651.7
489.342	652.67
489.55	630
489.758	668.17
489.967	646.47
490.175	741.41
490.383	667.98
490.591	761.75
490.799	662.55
491.007	738.31
491.215	703.04
491.423	703.43
491.631	714.28
491.839	693.55
492.047	749.16
492.255	646.86
492.463	638.14
492.671	683.67
492.879	759.62
493.087	686.96
493.295	728.23
493.503	757.29
493.711	756.52
493.919	765.82
494.127	754
494.334	787.52
494.542	705.18
494.75	728.62
494.958	755.36
495.166	783.26
495.374	808.06
495.581	780.93
495.789	765.43
495.997	818.52
496.205	760.97
496.412	751.48
496.62	785.77
496.828	763.3
497.035	780.35
497.243	841.57
497.451	771.82
497.658	789.65
497.866	812.51
498.074	814.84
498.281	759.62
498.489	851.65
498.696	788.29
498.904	741.6
499.112	770.08
499.319	826.65
499.527	794.3
499.734	856.1
499.942	731.91
500.149	760.59
500.357	781.9
500.564	736.17
500.771	805.73
500.979	759.42
501.186	753.03
501.394	793.52
501.601	794.11
501.808	777.25
502.016	775.7
502.223	743.15
502.43	781.51
502.638	760.59
502.845	758.46
503.052	853.97
503.26	790.62
503.467	864.24
503.674	798.76
503.881	829.56
504.089	903.96
504.296	817.94
504.503	754.58
504.71	785.77
504.917	754.97
505.125	829.56
505.332	805.34
505.539	846.61
505.746	868.89
505.953	839.83
506.16	886.33
506.367	924.3
506.574	908.22
506.781	890.59
506.988	824.52
507.195	869.47
507.402	839.05
507.609	875.29
507.816	822
508.023	842.74
508.23	814.64
508.437	767.37
508.644	855.33
508.851	882.84
509.058	884
509.265	864.82
509.472	905.32
509.679	971.97
509.885	865.02
510.092	900.67
510.299	867.73
510.506	867.15
510.713	866.18
510.92	862.11
511.126	885.94
511.333	929.92
511.54	934.77
511.746	920.23
511.953	960.53
512.16	944.65
512.367	872.38
512.573	886.72
512.78	897.95
512.987	891.17
513.193	908.42
513.4	836.15
513.606	867.92
513.813	916.94
514.02	910.16
514.226	977.2
514.433	962.67
514.639	864.05
514.846	915.97
515.052	885.17
515.259	901.64
515.465	919.65
515.672	929.34
515.878	972.74
516.085	905.32
516.291	960.73
516.497	899.31
516.704	880.13
516.91	843.32
517.117	834.79
517.323	785.97
517.529	841.38
517.736	833.44
517.942	862.69
518.148	867.15
518.354	890.4
518.561	888.85
518.767	895.44
518.973	911.71
519.179	909
519.386	885.75
519.592	904.35
519.798	908.22
520.004	937.87
520.21	907.83
520.417	990.18
520.623	1001.22
520.829	983.4
521.035	1022.73
521.241	1002
521.447	1058.96
521.653	1104.49
521.859	1007.42
522.065	1015.95
522.271	1108.36
522.477	1050.82
522.683	1076.2
522.889	1053.92
523.095	1037.06
523.301	1050.43
523.507	1006.26
523.713	1043.07
523.919	1006.65
524.125	1097.71
524.331	1026.41
524.537	1127.74
524.742	1106.23
524.948	1129.29
525.154	1100.23
525.36	1165.52
525.566	1112.04
525.772	1158.16
525.977	1073.68
526.183	1127.54
526.389	1145.37
526.595	1073.68
526.8	1101.58
527.006	1014.01
527.212	970.03
527.417	1026.99
527.623	990.95
527.829	1088.6
528.034	1073.3
528.24	1065.35
528.446	1077.17
528.651	1151.57
528.857	1136.46
529.062	1211.05
529.268	1147.69
529.473	1151.38
529.679	1172.88
529.884	1225.58
530.09	1197.87
530.295	1233.91
530.501	1223.26
530.706	1165.52
530.912	1103.13
531.117	1182.57
531.323	1179.47
531.528	1231.39
531.733	1211.82
531.939	1178.5
532.144	1245.92
532.35	1194.58
532.555	1246.31
532.76	1202.33
532.966	1251.35
533.171	1205.82
533.376	1179.66
533.581	1127.35
533.787	1197.29
533.992	1250.19
534.197	1231.97
534.402	1181.41
534.607	1207.37
534.813	1317.61
535.018	1205.04
535.223	1235.46
535.428	1226.94
535.633	1246.89
535.838	1262.39
536.043	1260.45
536.249	1305.21
536.454	1227.32
536.659	1238.17
536.864	1242.82
537.069	1221.32
537.274	1268.79
537.479	1266.85
537.684	1300.17
537.889	1232.36
538.094	1336.79
538.299	1262
538.504	1302.69
538.708	1278.28
538.913	1298.43
539.118	1277.7
539.323	1332.14
539.528	1265.88
539.733	1273.82
539.938	1296.88
540.142	1306.18
540.347	1256
540.552	1240.89
540.757	1245.54
540.962	1253.29
541.166	1198.26
541.371	1213.18
541.576	1251.74
541.781	1173.66
541.985	1266.27
542.19	1285.06
542.395	1344.15
542.599	1332.72
542.804	1297.46
543.008	1355.2
543.213	1247.28
543.418	1244.57
543.622	1302.5
543.827	1212.41
544.031	1361.2
544.236	1365.85
544.44	1317.42
544.645	1386.78
544.849	1335.24
545.054	1335.82
545.258	1417.97
545.463	1356.94
545.667	1284.87
545.872	1360.62
546.076	1336.79
546.281	1340.86
546.485	1319.35
546.689	1366.24
546.894	1385.23
547.098	1340.86
547.302	1297.65
547.507	1344.35
547.711	1364.5
547.915	1387.36
548.119	1292.23
548.324	1327.1
548.528	1381.35
548.732	1337.37
548.936	1364.69
549.141	1415.84
549.345	1302.69
549.549	1366.43
549.753	1327.69
549.957	1404.22
550.161	1411
550.366	1332.92
550.57	1329.43
550.774	1342.41
550.978	1328.07
551.182	1372.05
551.386	1355.58
551.59	1324.97
551.794	1339.5
551.998	1343.57
552.202	1360.04
552.406	1316.06
552.61	1345.9
552.814	1335.44
553.018	1427.66
553.222	1351.71
553.426	1324
553.63	1399.57
553.833	1352.87
554.037	1297.85
554.241	1377.28
554.445	1373.6
554.649	1351.13
554.853	1318
555.056	1367.02
555.26	1367.79
555.464	1348.61
555.668	1380.19
555.871	1405.77
556.075	1389.1
556.279	1339.12
556.483	1318.58
556.686	1337.76
556.89	1323.42
557.094	1342.99
557.297	1284.29
557.501	1407.32
557.704	1274.4
557.908	1381.93
558.112	1277.31
558.315	1394.53
558.519	1337.37
558.722	1298.62
558.926	1273.44
559.129	1263.75
559.333	1270.53
559.536	1268.59
559.74	1222.48
559.943	1242.24
560.147	1222.48
560.35	1238.37
560.553	1245.92
560.757	1205.82
560.96	1322.45
561.164	1239.72
561.367	1330.4
561.57	1270.92
561.774	1299.2
561.977	1246.7
562.18	1256.58
562.384	1332.14
562.587	1255.22
562.79	1219.77
562.993	1242.24
563.197	1300.37
563.4	1321.87
563.603	1302.69
563.806	1345.9
564.009	1245.92
564.212	1271.5
564.416	1207.76
564.619	1267.43
564.822	1163.19
565.025	1251.74
565.228	1230.62
565.431	1214.34
565.634	1187.99
565.837	1194
566.04	1149.63
566.243	1204.46
566.446	1108.56
566.649	1222.48
566.852	1156.22
567.055	1181.41
567.258	1225.19
567.461	1274.79
567.664	1207.56
567.867	1129.68
568.07	1190.32
568.273	1197.49
568.475	1201.56
568.678	1176.95
568.881	1177.72
569.084	1168.81
569.287	1058.38
569.489	1107.59
569.692	1187.99
569.895	1177.92
570.098	1093.25
570.3	1110.3
570.503	1073.68
570.706	1083.95
570.909	1092.09
571.111	1050.05
571.314	1047.53
571.516	1076.4
571.719	1087.63
571.922	1077.17
572.124	1066.13
572.327	1088.21
572.529	1021.76
572.732	1069.03
572.935	1120.76
573.137	1116.89
573.34	1076.01
573.542	1104.1
573.745	1107.39
573.947	1081.82
574.15	1089.76
574.352	1026.6
574.554	1101.97
574.757	1025.44
574.959	1025.25
575.162	1049.66
575.364	1015.56
575.566	1143.04
575.769	1014.01
575.971	1032.8
576.173	952.78
576.376	1001.8
576.578	1075.04
576.78	1065.35
576.982	970.61
577.185	1028.15
577.387	1002.77
577.589	997.54
577.791	1032.22
577.993	1039.58
578.196	1004.9
578.398	1023.7
578.6	1037.26
578.802	963.83
579.004	991.53
579.206	952.01
579.408	1025.05
579.61	962.47
579.812	1027.76
580.014	985.72
580.216	1000.06
580.418	1002.96
580.62	955.11
580.822	957.63
581.024	986.5
581.226	1063.41
581.428	977
581.63	1058.57
581.832	952.2
582.034	1043.65
582.236	1003.74
582.438	1023.7
582.64	1069.81
582.841	1073.68
583.043	1107.01
583.245	1068.26
583.447	1069.81
583.649	957.82
583.85	1052.37
584.052	1066.71
584.254	961.89
584.456	1048.3
584.657	970.22
584.859	996.57
585.061	983.4
585.262	987.47
585.464	952.59
585.666	1002.58
585.867	964.41
586.069	1038.81
586.27	1014.01
586.472	1015.56
586.674	960.34
586.875	971.58
587.077	952.98
587.278	966.15
587.48	984.95
587.681	1074.07
587.883	980.3
588.084	944.26
588.285	944.65
588.487	917.13
588.688	957.63
588.89	872.38
589.091	895.44
589.292	878.97
589.494	842.93
589.695	865.02
589.896	799.14
590.098	815.8
590.299	859.98
590.5	792.56
590.702	854.55
590.903	859.4
591.104	909.97
591.305	877.42
591.507	925.08
591.708	907.45
591.909	880.13
592.11	980.49
592.311	895.24
592.512	891.56
592.714	820.26
592.915	838.47
593.116	884.39
593.317	877.03
593.518	881.87
593.719	889.24
593.92	934.18
594.121	927.4
594.322	886.52
594.523	898.54
594.724	832.66
594.925	865.6
595.126	915.97
595.327	896.79
595.528	896.6
595.729	883.04
595.929	887.49
596.13	881.29
596.331	891.95
596.532	881.87
596.733	937.48
596.934	922.37
597.135	935.54
597.335	909.19
597.536	872.38
597.737	895.63
597.938	855.14
598.138	925.47
598.339	874.7
598.54	888.65
598.74	883.81
598.941	895.82
599.142	952.59
599.342	918.3
599.543	869.09
599.744	843.7
599.944	860.56
600.145	898.54
600.345	884.97
600.546	960.34
600.746	945.03
600.947	947.55
601.147	876.45
601.348	946.78
601.548	879.35
601.749	887.3
601.949	834.21
602.15	844.29
602.35	854.94
602.551	915.97
602.751	853.97
602.951	853.39
603.152	806.12
603.352	879.35
603.552	867.92
603.753	913.26
603.953	885.36
604.153	870.25
604.354	887.69
604.554	882.65
604.754	887.1
604.954	858.82
605.155	864.44
605.355	852.62
605.555	940.97
605.755	904.15
605.955	903.96
606.155	892.72
606.356	881.68
606.556	902.22
606.756	884
606.956	826.46
607.156	932.63
607.356	864.05
607.556	887.49
607.756	870.44
607.956	928.95
608.156	881.68
608.356	833.24
608.556	919.85
608.756	861.72
608.956	818.71
609.156	860.75
609.356	818.9
609.556	806.31
609.755	875.67
609.955	833.82
610.155	852.23
610.355	883.23
610.555	834.4
610.755	847.39
610.954	812.32
611.154	842.54
611.354	875.48
611.554	801.47
611.753	823.94
611.953	791.39
612.153	850.68
612.352	847.58
612.552	805.92
612.752	763.3
612.951	833.63
613.151	809.22
613.351	764.27
613.55	825.1
613.75	840.99
613.949	819.1
614.149	825.1
614.348	807.67
614.548	799.53
614.747	752.64
614.947	785.19
615.146	733.27
615.346	815.61
615.545	800.11
615.745	777.44
615.944	816.39
616.144	793.52
616.343	838.86
616.542	797.79
616.742	791.59
616.941	766.98
617.14	727.84
617.34	759.42
617.539	802.24
617.738	754.97
617.938	850.87
618.137	790.42
618.336	724.36
618.535	798.17
618.734	783.06
618.934	785.19
619.133	793.52
619.332	805.92
619.531	767.95
619.73	782.09
619.929	797.98
620.128	833.44
620.328	815.22
620.527	766.4
620.726	758.46
620.925	776.47
621.124	766.4
621.323	813.87
621.522	742.57
621.721	735.4
621.92	710.99
622.119	803.21
622.318	728.81
622.517	771.24
622.715	755.16
622.914	699.36
623.113	754.39
623.312	678.44
623.511	755.16
623.71	756.32
623.909	694.13
624.107	792.17
624.306	697.23
624.505	706.73
624.704	712.73
624.902	698.39
625.101	760.39
625.3	761.36
625.499	689.68
625.697	692
625.896	679.02
626.095	738.89
626.293	667.01
626.492	689.87
626.69	716.8
626.889	691.81
627.088	751.29
627.286	678.83
627.485	697.62
627.683	684.25
627.882	749.74
628.08	605.59
628.279	675.92
628.477	770.86
628.676	658.87
628.874	713.51
629.073	675.34
629.271	630.78
629.469	684.44
629.668	654.99
629.866	657.32
630.065	658.48
630.263	702.66
630.461	654.8
630.66	675.53
630.858	711.38
631.056	711.38
631.254	708.28
631.453	630.2
631.651	716.8
631.849	662.55
632.047	678.05
632.245	653.25
632.444	676.31
632.642	705.37
632.84	697.23
633.038	657.71
633.236	646.28
633.434	656.16
633.632	622.06
633.83	650.93
634.028	682.51
634.227	651.89
634.425	710.99
634.623	678.05
634.821	679.41
635.019	715.25
635.216	680.57
635.414	710.21
635.612	656.93
635.81	673.21
636.008	744.31
636.206	679.21
636.404	716.61
636.602	643.56
636.8	680.57
636.997	686.77
637.195	722.42
637.393	694.71
637.591	734.04
637.789	688.13
637.986	670.69
638.184	665.65
638.382	705.18
638.58	699.36
638.777	779.96
638.975	657.32
639.173	677.28
639.37	699.75
639.568	678.24
639.765	701.11
639.963	669.72
640.161	727.65
640.358	709.05
640.556	663.91
640.753	656.35
640.951	637.75
641.148	672.43
641.346	663.71
641.543	634.85
641.741	690.26
641.938	645.11
642.136	660.42
642.333	614.5
642.531	716.61
642.728	735.79
642.925	645.11
643.123	674.56
643.32	665.84
643.517	635.81
643.715	672.63
643.912	624.19
644.109	678.63
644.306	658.48
644.504	622.06
644.701	673.98
644.898	673.4
645.095	605.59
645.293	688.51
645.49	653.25
645.687	678.05
645.884	672.82
646.081	619.93
646.278	620.7
646.475	611.79
646.672	639.11
646.87	643.76
647.067	647.63
647.264	639.3
647.461	579.43
647.658	548.43
647.855	631.55
648.052	611.79
648.249	516.27
648.446	604.62
648.642	590.67
648.839	553.47
649.036	602.1
649.233	567.42
649.43	559.28
649.627	542.62
649.824	566.06
650.021	568.39
650.217	575.95
650.414	581.56
650.611	606.36
650.808	601.13
651.004	619.35
651.201	611.6
651.398	664.29
651.595	579.43
651.791	568
651.988	616.05
652.185	588.15
652.381	581.76
652.578	535.07
652.775	603.46
652.971	570.52
653.168	583.5
653.364	614.31
653.561	517.24
653.757	568.39
653.954	568.97
654.15	558.51
654.347	606.95
654.543	589.7
654.74	546.69
654.936	520.73
655.133	583.89
655.329	558.9
655.525	563.55
655.722	591.25
655.918	530.42
656.115	584.47
656.311	523.25
656.507	489.15
656.704	438.77
656.9	497.48
657.096	498.06
657.292	468.03
657.489	531.19
657.685	547.08
657.881	506.97
658.077	508.72
658.273	518.02
658.47	568.58
658.666	539.91
658.862	558.9
659.058	537.58
659.254	593.38
659.45	534.68
659.646	532.16
659.842	537.58
660.038	599
660.234	517.82
660.43	537.78
660.626	635.62
660.822	601.13
661.018	603.65
661.214	556.96
661.41	494.77
661.606	565.48
661.802	589.31
661.998	558.12
662.194	521.7
662.39	567.61
662.586	554.83
662.781	574.59
662.977	568.2
663.173	601.91
663.369	546.69
663.564	573.81
663.76	568.97
663.956	554.44
664.152	570.33
664.347	498.25
664.543	521.89
664.739	539.52
664.934	499.61
665.13	525.38
665.326	548.63
665.521	553.66
665.717	482.56
665.912	500.77
666.108	457.37
666.304	502.32
666.499	518.79
666.695	461.05
666.89	537.58
667.086	551.53
667.281	540.3
667.477	567.81
667.672	521.12
667.867	540.3
668.063	550.57
668.258	518.4
668.454	546.69
668.649	592.61
668.844	519.18
669.04	556.96
669.235	528.28
669.43	514.92
669.626	489.92
669.821	498.83
670.016	503.87
670.211	531.77
670.407	517.05
670.602	497.87
670.797	490.31
670.992	525.57
671.187	495.15
671.382	547.66
671.578	514.33
671.773	535.07
671.968	487.21
672.163	502.9
672.358	525.96
672.553	509.88
672.748	478.3
672.943	561.61
673.138	513.75
673.333	547.66
673.528	493.22
673.723	512.2
673.918	510.65
674.113	460.28
674.308	585.63
674.503	496.32
674.698	517.63
674.892	494.96
675.087	552.89
675.282	517.24
675.477	481.2
675.672	518.4
675.867	481.98
676.061	469.19
676.256	464.54
676.451	477.52
676.646	477.52
676.84	471.71
677.035	446.91
677.23	445.94
677.424	536.23
677.619	515.3
677.814	483.33
678.008	498.25
678.203	456.99
678.397	486.24
678.592	499.22
678.787	565.29
678.981	475
679.176	495.15
679.37	485.85
679.565	452.92
679.759	487.21
679.954	523.44
680.148	528.09
680.342	519.95
680.537	515.69
680.731	471.32
680.926	493.02
681.12	523.25
681.314	462.22
681.509	458.54
681.703	483.33
681.897	526.73
682.092	488.76
682.286	450.59
682.48	547.66
682.674	546.5
682.869	466.28
683.063	512.4
683.257	551.34
683.451	490.31
683.645	483.53
683.839	496.7
684.034	483.33
684.228	497.48
684.422	453.3
684.616	444.97
684.81	495.93
685.004	478.68
685.198	461.64
685.392	496.51
685.586	420.56
685.78	475.39
685.974	490.89
686.168	495.35
686.362	519.95
686.556	426.37
686.75	385.49
686.944	418.82
687.138	445.36
687.331	338.61
687.525	382.97
687.719	323.49
687.913	401.96
688.107	387.04
688.301	357.59
688.494	411.07
688.688	345.97
688.882	337.06
689.076	371.93
689.269	369.02
689.463	445.55
689.657	382.97
689.85	400.22
690.044	392.66
690.238	393.82
690.431	387.82
690.625	378.13
690.818	403.12
691.012	401.19
691.205	436.64
691.399	356.43
691.593	407.97
691.786	460.47
691.98	476.36
692.173	506.58
692.366	455.82
692.56	470.74
692.753	518.6
692.947	425.02
693.14	516.85
693.333	499.8
693.527	424.05
693.72	462.99
693.914	474.42
694.107	478.3
694.3	482.17
694.493	458.34
694.687	521.5
694.88	459.7
695.073	519.95
695.266	489.15
695.46	478.88
695.653	528.67
695.846	515.5
696.039	432.96
696.232	482.56
696.425	523.63
696.618	530.42
696.812	466.67
697.005	548.63
697.198	652.28
697.391	574.2
697.584	581.76
697.777	606.95
697.97	580.4
698.163	632.13
698.356	584.66
698.549	680.96
698.742	620.12
698.935	565.48
699.127	619.93
699.32	585.05
699.513	592.22
699.706	595.32
699.899	632.52
700.092	604.04
700.285	637.17
700.477	592.8
700.67	626.13
700.863	633.3
701.056	729.97
701.248	686.38
701.441	698.39
701.634	639.11
701.826	740.63
702.019	640.85
702.212	714.09
702.404	674.95
702.597	673.98
702.79	714.28
702.982	702.46
703.175	721.26
703.367	756.52
703.56	734.82
703.752	817.16
703.945	779.38
704.137	780.93
704.33	793.33
704.522	809.41
704.715	816.19
704.907	835.76
705.1	840.8
705.292	834.6
705.484	808.44
705.677	856.69
705.869	875.87
706.061	887.69
706.254	915.78
706.446	874.32
706.638	850.29
706.831	952.98
707.023	891.37
707.215	977.2
707.407	971
707.599	933.8
707.792	1009.55
707.984	958.02
708.176	1020.98
708.368	974.1
708.56	1021.56
708.752	986.3
708.944	984.56
709.136	1022.34
709.329	1013.23
709.521	1130.45
709.713	1098.68
709.905	1072.91
710.097	1097.51
710.289	1039.78
710.481	1087.83
710.672	1114.37
710.864	1136.26
711.056	1183.73
711.248	1120.18
711.44	1124.25
711.632	1105.26
711.824	1130.06
712.016	1203.69
712.207	1208.72
712.399	1197.68
712.591	1271.5
712.783	1227.91
712.975	1262.97
713.166	1180.24
713.358	1252.7
713.55	1272.66
713.741	1274.99
713.933	1291.45
714.125	1301.92
714.316	1268.98
714.508	1346.48
714.7	1334.66
714.891	1357.91
715.083	1399.95
715.274	1322.65
715.466	1352.29
715.657	1407.32
715.849	1303.66
716.04	1350.93
716.232	1291.45
716.423	1391.82
716.615	1325.36
716.806	1280.22
716.998	1263.75
717.189	1233.14
717.381	1157.96
717.572	1175.21
717.763	1222.09
717.955	1155.64
718.146	1162.03
718.337	1136.26
718.528	1085.5
718.72	1062.06
718.911	1123.09
719.102	1054.11
719.293	1139.17
719.485	1112.43
719.676	1123.09
719.867	1082.98
720.058	1090.34
720.249	1120.76
720.44	1096.93
720.632	1146.34
720.823	1186.83
721.014	1309.28
721.205	1297.85
721.396	1362.75
721.587	1432.31
721.778	1456.72
721.969	1424.56
722.16	1514.26
722.351	1468.54
722.542	1592.73
722.733	1616.56
722.924	1536.35
723.115	1575.49
723.305	1559.6
723.496	1597.96
723.687	1492.37
723.878	1495.28
724.069	1500.7
724.26	1535.58
724.45	1450.71
724.641	1470.86
724.832	1489.66
725.023	1488.88
725.213	1502.64
725.404	1473.19
725.595	1511.94
725.785	1491.98
725.976	1578.98
726.167	1562.51
726.357	1522.21
726.548	1619.08
726.739	1566.96
726.929	1620.44
727.12	1647.56
727.31	1656.67
727.501	1609.97
727.691	1649.89
727.882	1628.38
728.072	1677.01
728.263	1690.96
728.453	1695.42
728.644	1703.36
728.834	1725.84
729.024	1713.63
729.215	1677.59
729.405	1748.31
729.596	1777.18
729.786	1814.77
729.976	1803.14
730.167	1842.08
730.357	1791.13
730.547	1801.4
730.737	1855.07
730.928	1863.59
731.118	1882.58
731.308	1833.37
731.498	1880.64
731.688	1965.31
731.879	1913
732.069	2017.23
732.259	2012.97
732.449	2100.54
732.639	2138.13
732.829	2093.57
733.019	2150.14
733.209	2201.29
733.399	2223.18
733.589	2289.64
733.779	2301.26
733.969	2321.41
734.159	2336.33
734.349	2413.83
734.539	2445.8
734.729	2416.54
734.919	2428.17
735.109	2478.35
735.299	2421.97
735.488	2417.51
735.678	2488.81
735.868	2501.02
736.058	2484.36
736.248	2502.57
736.437	2449.29
736.627	2466.34
736.817	2553.14
737.007	2476.02
737.196	2553.52
737.386	2524.46
737.576	2520.39
737.765	2611.65
737.955	2565.54
738.144	2615.33
738.334	2623.85
738.524	2546.36
738.713	2596.54
738.903	2619.01
739.092	2671.71
739.282	2628.31
739.471	2672.87
739.661	2656.79
739.85	2727.9
740.04	2718.6
740.229	2736.62
740.419	2710.27
740.608	2805.59
740.797	2724.6
740.987	2834.26
741.176	2782.15
741.365	2758.12
741.555	2731
741.744	2866.81
741.933	2796.1
742.123	2830.19
742.312	2841.04
742.501	2841.63
742.69	2887.35
742.88	2795.13
743.069	2928.81
743.258	2840.46
743.447	2916.61
743.636	2884.44
743.825	2892.39
744.014	2906.92
744.204	2910.41
744.393	2889.87
744.582	2996.24
744.771	3016.77
744.96	2927.84
745.149	3005.34
745.338	2945.09
745.527	3007.09
745.716	2940.05
745.905	2921.84
746.094	2974.73
746.283	2982.48
746.471	3002.05
746.66	3048.55
746.849	3009.8
747.038	3041.19
747.227	3001.85
747.416	3018.52
747.604	2983.84
747.793	2983.45
747.982	2979.38
748.171	3047.19
748.359	3025.1
748.548	3045.45
748.737	3040.02
748.926	3024.91
749.114	2972.41
749.303	2996.24
749.491	3013.48
749.68	2954.39
749.869	3059.4
750.057	2962.33
750.246	3021.42
750.434	2985.39
750.623	2976.28
750.811	2995.07
751	2985.39
751.188	2955.36
751.377	3033.82
751.565	3007.09
751.754	2944.89
751.942	2937.34
752.131	3018.9
752.319	2963.3
752.507	2923.39
752.696	3018.71
752.884	3033.05
753.072	3027.24
753.261	3005.54
753.449	2978.22
753.637	2928.81
753.825	3053.59
754.014	2962.33
754.202	2974.34
754.39	3049.9
754.578	2997.59
754.766	2979.77
754.955	2934.04
755.143	3023.55
755.331	2896.46
755.519	2980.54
755.707	2925.52
755.895	2944.89
756.083	2937.53
756.271	2896.26
756.459	2957.49
756.647	2958.84
756.835	2914.47
757.023	2941.02
757.211	2904.21
757.399	2932.49
757.587	2898.98
757.775	2885.22
757.963	2889.48
758.151	2866.23
758.339	2864.1
758.526	2832.71
758.714	2892.97
758.902	2760.45
759.09	2693.8
759.278	2560.5
759.465	2325.29
759.653	2063.73
759.841	1825.81
760.028	1546.04
760.216	1342.6
760.404	1305.21
760.591	1018.85
760.779	910.55
760.967	809.8
761.154	647.24
761.342	704.01
761.529	647.63
761.717	736.76
761.905	714.86
762.092	783.06
762.28	711.96
762.467	737.14
762.655	663.13
762.842	704.79
763.029	711.18
763.217	715.83
763.404	708.28
763.592	729.59
763.779	690.45
763.966	748.19
764.154	781.12
764.341	813.29
764.528	847.19
764.716	904.15
764.903	934.57
765.09	978.94
765.277	1005.87
765.465	1163.19
765.652	1242.05
765.839	1302.69
766.026	1382.13
766.213	1404.02
766.4	1482.88
766.588	1705.88
766.775	1642.72
766.962	1801.59
767.149	1827.36
767.336	1978.48
767.523	1981.97
767.71	2053.07
767.897	2137.55
768.084	2230.35
768.271	2211.75
768.458	2307.85
768.645	2361.52
768.832	2354.55
769.019	2323.35
769.206	2398.14
769.392	2471.96
769.579	2512.45
769.766	2476.41
769.953	2503.54
770.14	2534.54
770.327	2588.01
770.513	2550.81
770.7	2639.35
770.887	2506.64
771.073	2564.18
771.26	2592.08
771.447	2570.77
771.634	2559.14
771.82	2697.09
772.007	2528.14
772.193	2594.6
772.38	2616.49
772.567	2579.29
772.753	2592.47
772.94	2635.87
773.126	2610.1
773.313	2633.93
773.499	2634.9
773.686	2611.26
773.872	2607.77
774.059	2629.67
774.245	2515.16
774.432	2603.51
774.618	2503.54
774.804	2592.08
774.991	2526.01
775.177	2567.67
775.363	2581.42
775.55	2582.39
775.736	2514
775.922	2548.87
776.109	2574.84
776.295	2570.38
776.481	2572.12
776.667	2566.7
776.853	2524.27
777.04	2487.65
777.226	2501.02
777.412	2598.09
777.598	2485.13
777.784	2494.62
777.97	2523.88
778.156	2552.17
778.342	2500.05
778.528	2510.51
778.715	2459.56
778.901	2462.27
779.087	2488.42
779.272	2418.87
779.458	2445.99
779.644	2436.69
779.83	2423.52
780.016	2525.24
780.202	2480.09
780.388	2440.18
780.574	2397.75
780.76	2408.6
780.946	2445.03
781.131	2426.04
781.317	2395.62
781.503	2380.9
781.689	2424.29
781.874	2501.02
782.06	2379.73
782.246	2413.64
782.432	2379.15
782.617	2410.34
782.803	2455.49
782.989	2383.61
783.174	2360.94
783.36	2315.6
783.545	2357.06
783.731	2353.38
783.916	2262.9
784.102	2370.82
784.288	2331.1
784.473	2302.81
784.659	2329.16
784.844	2371.98
785.029	2264.26
785.215	2301.26
785.4	2237.52
785.586	2320.45
785.771	2269.3
785.956	2303.2
786.142	2299.33
786.327	2242.95
786.512	2268.13
786.698	2230.74
786.883	2204.39
787.068	2245.66
787.254	2241.4
787.439	2211.75
787.624	2188.31
787.809	2225.9
787.994	2221.83
788.18	2237.91
788.365	2165.06
788.55	2165.25
788.735	2166.61
788.92	2177.46
789.105	2156.92
789.29	2174.94
789.475	2105.19
789.66	2125.34
789.845	2107.71
790.03	2052.69
790.215	2111.2
790.4	2151.3
790.585	2139.87
790.77	2101.32
790.955	2015.88
791.14	2114.88
791.325	2126.31
791.51	2025.76
791.695	2085.82
791.879	2090.47
792.064	2065.28
792.249	2141.23
792.434	2050.94
792.618	2094.73
792.803	2102.09
792.988	2059.86
793.173	2065.09
793.357	2100.74
793.542	2024.4
793.727	2096.47
793.911	2130.57
794.096	2056.17
794.281	2078.65
794.465	2194.12
794.65	2095.89
794.834	2106.55
795.019	2161.57
795.203	2127.86
795.388	2145.69
795.572	2166.61
795.757	2133.48
795.941	2137.94
796.126	2093.57
796.31	2066.06
796.494	2119.92
796.679	2086.59
796.863	2047.84
797.048	2160.22
797.232	2106.55
797.416	2102.29
797.601	2080.2
797.785	2169.13
797.969	2148.2
798.153	2098.99
798.338	2150.53
798.522	2148.2
798.706	2156.15
798.89	2155.18
799.074	2239.65
799.258	2154.6
799.443	2154.02
799.627	2151.3
799.811	2211.95
799.995	2130.38
800.179	2110.42
800.363	2132.32
800.547	2154.99
800.731	2159.44
800.915	2073.81
801.099	2092.79
801.283	2132.9
801.467	2115.85
801.651	2087.95
801.835	2142.97
802.019	2123.6
802.202	2129.8
802.386	2090.47
802.57	2073.03
802.754	2075.16
802.938	2032.73
803.121	2062.57
803.305	2148.2
803.489	2070.32
803.673	2113.33
803.856	2147.82
804.04	2091.24
804.224	2105
804.407	2091.44
804.591	2082.14
804.775	2087.95
804.958	2152.85
805.142	2221.63
805.326	2087.56
805.509	2143.36
805.693	2151.89
805.876	2149.75
806.06	2142
806.243	2165.64
806.427	2162.35
806.61	2154.21
806.794	2167.58
806.977	2165.64
807.16	2112.56
807.344	2135.22
807.527	2121.47
807.71	2111.01
807.894	2096.67
808.077	2133.87
808.26	2087.56
808.444	2077.1
808.627	2130.96
808.81	2045.91
808.993	2068.19
809.177	2006.77
809.36	2069.54
809.543	2078.65
809.726	2003.67
809.909	2013.55
810.092	1987.98
810.276	1965.11
810.459	1992.63
810.642	1916.68
810.825	1895.56
811.008	1962.79
811.191	1883.35
811.374	1889.94
811.557	1940.9
811.74	1968.79
811.923	1855.07
812.106	1825.42
812.289	1806.63
812.472	1818.25
812.654	1862.04
812.837	1809.73
813.02	1756.84
813.203	1747.34
813.386	1644.07
813.569	1659.96
813.751	1602.61
813.934	1655.51
814.117	1627.02
814.3	1569.48
814.482	1538.68
814.665	1533.64
814.848	1482.68
815.03	1427.08
815.213	1451.88
815.396	1451.68
815.578	1402.47
815.761	1389.3
815.943	1446.84
816.126	1346.87
816.309	1334.66
816.491	1311.6
816.674	1265.3
816.856	1312.38
817.039	1279.25
817.221	1378.64
817.403	1321.1
817.586	1301.92
817.768	1355.2
817.951	1250.19
818.133	1270.92
818.315	1271.5
818.498	1324.59
818.68	1359.27
818.862	1337.57
819.045	1362.37
819.227	1338.73
819.409	1324.39
819.591	1330.01
819.774	1335.44
819.956	1300.56
820.138	1360.23
820.32	1387.17
820.502	1403.05
820.684	1442.38
820.866	1480.36
821.048	1508.65
821.231	1512.52
821.413	1478.03
821.595	1504.77
821.777	1486.56
821.959	1482.49
822.141	1537.13
822.323	1384.07
822.505	1363.92
822.686	1309.67
822.868	1264.91
823.05	1190.51
823.232	1189.54
823.414	1074.07
823.596	1175.4
823.778	1157.58
823.96	1206.4
824.141	1189.93
824.323	1231.97
824.505	1285.84
824.687	1325.55
824.868	1378.06
825.05	1440.45
825.232	1468.54
825.413	1526.28
825.595	1434.44
825.777	1407.32
825.958	1455.56
826.14	1426.11
826.321	1461.76
826.503	1434.44
826.685	1472.03
826.866	1498.18
827.048	1464.47
827.229	1408.09
827.411	1414.48
827.592	1361.2
827.773	1338.92
827.955	1303.27
828.136	1293.97
828.318	1292.23
828.499	1322.84
828.68	1283.32
828.862	1323.62
829.043	1313.15
829.224	1291.84
829.406	1286.61
829.587	1298.62
829.768	1317.03
829.949	1326.52
830.131	1305.6
830.312	1341.25
830.493	1307.92
830.674	1343.57
830.855	1322.07
831.036	1312.96
831.218	1346.87
831.399	1402.67
831.58	1324.2
831.761	1345.12
831.942	1365.85
832.123	1298.62
832.304	1266.85
832.485	1263.36
832.666	1291.26
832.847	1304.63
833.028	1293
833.209	1299.98
833.389	1291.26
833.57	1249.02
833.751	1271.3
833.932	1340.67
834.113	1312.38
834.294	1295.14
834.475	1333.3
834.655	1360.04
834.836	1365.66
835.017	1374.38
835.198	1281.19
835.378	1335.63
835.559	1351.13
835.74	1313.74
835.92	1317.8
836.101	1290.68
836.281	1366.63
836.462	1336.6
836.643	1372.05
836.823	1402.08
837.004	1352.87
837.184	1406.35
837.365	1386.2
837.545	1407.51
837.726	1346.48
837.906	1417.58
838.087	1400.92
838.267	1389.68
838.448	1371.28
838.628	1380.19
838.808	1396.47
838.989	1403.83
839.169	1297.07
839.349	1395.11
839.53	1430.18
839.71	1392.59
839.89	1355
840.07	1394.53
840.251	1328.85
840.431	1412.55
840.611	1397.63
840.791	1340.86
840.971	1360.82
841.151	1351.32
841.332	1284.09
841.512	1383.29
841.692	1305.99
841.872	1368.18
842.052	1341.44
842.232	1349.77
842.412	1294.75
842.592	1335.05
842.772	1410.61
842.952	1350.74
843.132	1327.3
843.312	1310.25
843.492	1311.99
843.672	1344.73
843.851	1268.79
844.031	1355
844.211	1348.61
844.391	1318
844.571	1313.15
844.751	1338.73
844.93	1323.81
845.11	1278.09
845.29	1338.92
845.47	1322.07
845.649	1316.25
845.829	1365.85
846.009	1320.13
846.188	1342.6
846.368	1317.61
846.547	1336.21
846.727	1350.35
846.907	1274.6
847.086	1329.43
847.266	1356.17
847.445	1330.59
847.625	1298.82
847.804	1249.61
847.984	1314.7
848.163	1263.17
848.343	1309.28
848.522	1305.02
848.701	1287.77
848.881	1260.84
849.06	1267.62
849.239	1287.39
849.419	1295.14
849.598	1240.89
849.777	1228.1
849.957	1225.19
850.136	1177.53
850.315	1177.34
850.494	1160.29
850.674	1169.01
850.853	1245.73
851.032	1206.4
851.211	1247.67
851.39	1166.49
851.569	1180.63
851.748	1175.21
851.927	1215.51
852.107	1239.53
852.286	1184.51
852.465	1124.06
852.644	1199.81
852.823	1227.52
853.002	1184.31
853.181	1187.99
853.359	1212.21
853.538	1139.56
853.717	1238.76
853.896	1111.85
854.075	1105.65
854.254	1068.65
854.433	998.31
854.611	1085.69
854.79	986.69
854.969	1071.75
855.148	1068.26
855.327	1018.85
855.505	1054.5
855.684	1074.46
855.863	1144.01
856.041	1055.86
856.22	1094.61
856.399	1086.08
856.577	1177.72
856.756	1144.21
856.934	1231.97
857.113	1249.41
857.291	1149.05
857.47	1138.2
857.648	1122.12
857.827	1141.49
858.005	1171.91
858.184	1105.84
858.362	1213.96
858.541	1138.59
858.719	1148.28
858.898	1128.51
859.076	1117.47
859.254	1235.27
859.433	1138.98
859.611	1108.56
859.789	1094.61
859.967	1171.52
860.146	1216.28
860.324	1076.59
860.502	1084.34
860.68	1048.11
860.859	1118.44
861.037	1096.93
861.215	1104.88
861.393	1117.47
861.571	1107.59
861.749	1086.66
861.927	1119.79
862.105	1110.11
862.283	1103.52
862.461	1041.52
862.639	1045.59
862.817	1092.09
862.995	1086.66
863.173	1066.51
863.351	1078.33
863.529	1066.71
863.707	1139.94
863.885	1084.92
864.063	1028.35
864.241	1076.59
864.418	1099.64
864.596	1073.3
864.774	1000.45
864.952	1046.75
865.129	1072.71
865.307	1000.64
865.485	990.18
865.663	1063.22
865.84	971
866.018	1027.76
866.196	866.95
866.373	924.88
866.551	889.82
866.728	871.22
866.906	920.43
867.084	920.23
867.261	965.38
867.439	956.47
867.616	988.24
867.794	957.43
867.971	988.05
868.149	961.12
868.326	1000.45
868.503	1024.86
868.681	984.37
868.858	986.3
869.035	929.34
869.213	980.88
869.39	989.21
869.567	1059.54
869.745	970.03
869.922	988.05
870.099	1018.46
870.276	1034.16
870.454	984.95
870.631	991.53
870.808	972.35
870.985	1028.93
871.162	1026.41
871.339	978.75
871.517	918.1
871.694	942.9
871.871	951.04
872.048	959.76
872.225	962.86
872.402	922.17
872.579	899.31
872.756	967.32
872.933	883.23
873.11	927.98
873.287	944.45
873.463	949.68
873.64	890.01
873.817	969.45
873.994	929.53
874.171	909.19
874.348	922.17
874.524	870.44
874.701	954.53
874.878	865.02
875.055	906.28
875.231	916.17
875.408	926.05
875.585	859.98
875.762	907.25
875.938	874.32
876.115	909.97
876.291	879.35
876.468	909.38
876.645	849.9
876.821	897.18
876.998	847
877.174	902.41
877.351	860.37
877.527	855.14
877.704	877.03
877.88	891.56
878.057	861.14
878.233	924.5
878.409	875.09
878.586	903.18
878.762	827.43
878.938	847.19
879.115	795.46
879.291	850.68
879.467	817.35
879.644	824.52
879.82	866.57
879.996	824.91
880.172	800.5
880.349	793.33
880.525	868.31
880.701	801.27
880.877	794.69
881.053	823.17
881.229	811.35
881.405	843.12
881.581	789.07
881.757	818.13
881.933	839.05
882.109	841.77
882.285	839.05
882.461	772.79
882.637	807.67
882.813	796.62
882.989	821.42
883.165	870.25
883.341	785
883.517	851.65
883.693	814.84
883.869	844.87
884.044	791.2
884.22	838.86
884.396	859.79
884.572	835.76
884.747	846.03
884.923	805.73
885.099	828.79
885.275	860.17
885.45	828.79
885.626	839.44
885.801	795.27
885.977	799.34
886.153	757.49
886.328	828.01
886.504	765.62
886.679	821.23
886.855	795.27
887.03	844.48
887.206	844.29
887.381	828.79
887.557	826.85
887.732	823.55
887.908	826.46
888.083	826.85
888.258	782.09
888.434	810.96
888.609	820.07
888.784	823.94
888.96	806.31
889.135	791.78
889.31	792.94
889.485	812.71
889.661	817.35
889.836	854.36
890.011	834.4
890.186	760.78
890.361	777.64
890.537	804.57
890.712	832.47
890.887	816.19
891.062	806.51
891.237	879.35
891.412	758.46
891.587	801.47
891.762	832.27
891.937	857.07
892.112	785.77
892.287	778.8
892.462	725.13
892.637	740.05
892.812	713.31
892.987	762.14
893.161	718.35
893.336	737.92
893.511	766.4
893.686	760.78
893.861	742.76
894.035	760.2
894.21	753.61
894.385	692
894.56	719.51
894.734	708.47
894.909	697.81
895.084	678.83
895.258	672.24
895.433	643.18
895.608	640.66
895.782	597.26
895.957	606.17
896.131	612.18
896.306	586.02
896.48	573.04
896.655	573.43
896.829	518.98
897.004	514.14
897.178	560.83
897.353	502.13
897.527	563.93
897.701	569.75
897.876	486.24
898.05	587.96
898.224	546.69
898.399	606.36
898.573	539.91
898.747	471.13
898.921	524.22
899.096	424.82
899.27	436.25
899.444	442.65
899.618	451.17
899.792	482.56
899.967	455.82
900.141	500.58
900.315	472.1
900.489	451.37
900.663	488.95
900.837	457.95
901.011	420.95
901.185	493.8
901.359	477.13
901.533	487.4
901.707	526.93
901.881	463.77
902.055	415.52
902.229	443.23
902.403	522.28
902.576	487.02
902.75	478.49
902.924	585.83
903.098	520.34
903.272	556.57
903.446	581.95
903.619	544.56
903.793	597.06
903.967	593
904.14	597.06
904.314	617.02
904.488	571.49
904.661	636.4
904.835	584.08
905.009	636.4
905.182	646.08
905.356	613.92
905.529	592.61
905.703	556.57
905.876	566.26
906.05	557.93
906.223	569.94
906.397	491.08
906.57	493.6
906.744	474.62
906.917	450.98
907.09	467.45
907.264	447.1
907.437	439.55
907.61	417.85
907.784	443.42
907.957	442.26
908.13	432.57
908.304	440.32
908.477	375.61
908.65	424.63
908.823	405.06
908.996	493.6
909.17	420.37
909.343	402.15
909.516	438.58
909.689	415.72
909.862	374.84
910.035	429.86
910.208	387.43
910.381	378.52
910.554	469.58
910.727	398.47
910.9	377.16
911.073	397.5
911.246	461.64
911.419	452.53
911.592	423.66
911.765	404.09
911.938	393.24
912.11	407.97
912.283	422.69
912.456	456.99
912.629	424.24
912.802	389.95
912.974	375.81
913.147	320.97
913.32	314.19
913.493	334.34
913.665	340.35
913.838	376
914.01	335.51
914.183	358.17
914.356	342.29
914.528	377.94
914.701	424.82
914.873	407.58
915.046	340.16
915.218	328.34
915.391	285.71
915.563	291.91
915.736	373.09
915.908	375.61
916.081	363.79
916.253	358.17
916.425	360.69
916.598	378.32
916.77	367.86
916.942	325.24
917.115	287.26
917.287	387.43
917.459	351.01
917.632	298.11
917.804	259.17
917.976	354.49
918.148	319.23
918.32	332.99
918.493	372.71
918.665	391.89
918.837	366.7
919.009	423.85
919.181	388.01
919.353	399.64
919.525	373.67
919.697	359.92
919.869	377.55
920.041	430.25
920.213	477.91
920.385	420.56
920.557	353.33
920.729	417.46
920.901	377.74
921.073	372.12
921.244	390.34
921.416	391.69
921.588	376.97
921.76	349.84
921.932	452.34
922.103	377.94
922.275	377.36
922.447	393.44
922.619	305.28
922.79	351.78
922.962	348.68
923.134	383.55
923.305	320.2
923.477	306.25
923.648	307.22
923.82	347.52
923.991	295.4
924.163	255.68
924.335	307.8
924.506	307.22
924.677	365.92
924.849	300.44
925.02	329.31
925.192	319.62
925.363	323.3
925.535	344.22
925.706	327.17
925.877	341.9
926.049	292.88
926.22	314.58
926.391	324.07
926.562	353.33
926.734	307.02
926.905	368.06
927.076	263.24
927.247	302.76
927.419	245.61
927.59	260.53
927.761	297.92
927.932	234.76
928.103	279.13
928.274	208.99
928.445	229.91
928.616	235.14
928.787	247.54
928.958	266.73
929.129	237.86
929.3	228.36
929.471	192.71
929.642	163.07
929.813	107.47
929.984	217.9
930.155	134.4
930.326	201.82
930.496	147.38
930.667	97.39
930.838	159.78
931.009	134.78
931.18	128.97
931.35	132.07
931.521	137.3
931.692	81.7
931.863	49.15
932.033	120.25
932.204	114.44
932.374	102.04
932.545	54.77
932.716	116.18
932.886	118.9
933.057	11.37
933.227	55.35
933.398	161.91
933.568	53.8
933.739	22.8
933.909	46.43
934.08	56.7
934.25	4.97
934.421	8.65
934.591	72.2
934.761	5.55
934.932	-18.08
935.102	44.3
935.272	24.93
935.443	42.56
935.613	52.63
935.783	33.26
935.953	-12.66
936.123	157.06
936.294	20.09
936.464	24.93
936.634	28.42
936.804	1.49
936.974	1.49
937.144	55.35
937.314	-1.42
937.484	37.91
937.655	-1.23
937.825	75.69
937.995	-21.76
938.165	55.93
938.334	30.16
938.504	72.2
938.674	6.91
938.844	49.53
939.014	104.56
939.184	78.79
939.354	126.06
939.524	97.39
939.694	52.83
939.863	66.39
940.033	116.18
940.203	104.56
940.373	71.23
940.542	90.61
940.712	83.83
940.882	107.47
941.051	90.03
941.221	94.87
941.391	123.55
941.56	72.4
941.73	45.27
941.899	141.56
942.069	55.93
942.238	95.07
942.408	72.98
942.577	89.06
942.747	87.32
942.916	11.37
943.086	25.7
943.255	84.99
943.425	91
943.594	60
943.763	-12.66
943.933	36.17
944.102	6.72
944.271	30.93
944.441	44.3
944.61	37.72
944.779	28.42
944.948	129.16
945.117	11.37
945.287	47.02
945.456	-15.18
945.625	-0.26
945.794	71.82
945.963	36.55
946.132	86.35
946.301	24.93
946.47	101.07
946.639	-13.63
946.808	7.49
946.977	79.37
947.146	92.74
947.315	37.72
947.484	67.36
947.653	31.9
947.822	31.52
947.991	25.7
948.16	133.23
948.329	96.03
948.498	44.69
948.666	49.92
948.835	87.9
949.004	10.4
949.173	27.64
949.341	58.83
949.51	56.12
949.679	88.09
949.847	87.7
950.016	132.46
950.185	119.86
950.353	38.68
950.522	35.2
950.69	91
950.859	48.57
951.028	97.2
951.196	77.43
951.365	29.77
951.533	46.43
951.701	105.53
951.87	66.78
952.038	36.55
952.207	39.85
952.375	111.15
952.543	16.6
952.712	29.97
952.88	41.59
953.048	108.05
953.217	75.11
953.385	49.15
953.553	95.07
953.721	27.84
953.89	68.91
954.058	11.37
954.226	40.23
954.394	55.54
954.562	18.73
954.73	71.23
954.898	49.92
955.067	66.39
955.235	50.31
955.403	86.93
955.571	123.74
955.739	76.47
955.907	38.1
956.075	51.67
956.243	36.17
956.41	75.3
956.578	2.84
956.746	15.82
956.914	25.7
957.082	92.35
957.25	89.25
957.418	53.8
957.585	60.38
957.753	107.27
957.921	26.67
958.089	48.57
958.256	53.41
958.424	93.32
958.592	83.05
958.759	22.02
958.927	85.18
959.095	42.75
959.262	56.51
959.43	50.89
959.597	45.27
959.765	39.07
959.932	18.15
960.1	95.65
960.267	73.17
960.435	49.34
960.602	104.17
960.77	39.46
960.937	27.64
961.104	67.17
961.272	11.37
961.439	39.65
961.606	73.95
961.774	77.63
961.941	59.61
962.108	94.87
962.275	77.05
962.443	83.63
962.61	80.15
962.777	133.23
962.944	95.65
963.111	69.1
963.278	85.77
963.446	77.82
963.613	91.58
963.78	70.85
963.947	113.47
964.114	68.33
964.281	126.65
964.448	78.98
964.615	46.82
964.782	74.53
964.949	103.2
965.116	89.06
965.282	111.73
965.449	56.12
965.616	47.79
965.783	111.92
965.95	66.39
966.117	44.11
966.283	59.61
966.45	68.13
966.617	80.53
966.784	150.09
966.95	105.53
967.117	101.46
967.284	36.36
967.45	59.8
967.617	116.18
967.784	86.35
967.95	135.56
968.117	54.18
968.283	141.56
968.45	165.98
968.616	90.8
968.783	142.53
968.949	86.35
969.116	131.88
969.282	112.89
969.449	71.82
969.615	92.35
969.781	50.5
969.948	78.98
970.114	33.84
970.28	153.38
970.447	82.67
970.613	113.28
970.779	62.71
970.945	109.4
971.112	110.76
971.278	76.27
971.444	68.13
971.61	133.81
971.776	77.05
971.942	102.43
972.108	122.19
972.275	67.55
972.441	93.9
972.607	145.44
972.773	75.11
972.939	103.59
973.105	110.57
973.271	66.2
973.437	68.52
973.602	64.45
973.768	92.16
973.934	95.45
974.1	92.35
974.266	-12.46
974.432	113.47
974.598	81.31
974.763	105.14
974.929	48.76
975.095	139.24
975.261	47.79
975.426	57.67
975.592	58.25
975.758	128.97
975.923	40.82
976.089	42.17
976.255	108.43
976.42	89.64
976.586	82.47
976.751	94.48
976.917	152.61
977.082	109.02
977.248	53.8
977.413	42.95
977.579	67.94
977.744	100.3
977.91	25.12
978.075	68.33
978.24	91.19
978.406	65.23
978.571	32.1
978.736	43.14
978.902	80.53
979.067	57.28
979.232	24.35
979.397	77.24
979.563	102.04
979.728	41.98
979.893	70.85
980.058	46.43
980.223	95.26
980.388	71.23
980.554	47.02
980.719	70.27
980.884	58.45
981.049	103.78
981.214	77.82
981.379	90.22
981.544	76.27
981.709	60.38
981.874	43.92
982.039	73.75
982.204	100.1
982.368	75.5
982.533	58.64
982.698	102.23
982.863	134.59
983.028	53.6
983.193	91.19
983.357	56.32
983.522	102.43
983.687	74.53
983.852	66.78
984.016	57.67
984.181	67.55
984.346	97.39
984.51	101.07
984.675	42.37
984.839	107.85
985.004	89.83
985.168	100.68
985.333	76.27
985.498	71.04
985.662	114.05
985.827	81.89
985.991	77.24
986.155	63.87
986.32	83.05
986.484	158.23
986.649	99.52
986.813	21.44
986.977	97.58
987.142	103.01
987.306	35.58
987.47	29
987.634	67.17
987.799	71.23
987.963	78.21
988.127	99.13
988.291	122.38
988.455	105.33
988.62	68.52
988.784	94.29
988.948	81.89
989.112	49.34
989.276	65.62
989.44	92.35
989.604	53.02
989.768	55.93
989.932	106.88
990.096	49.15
990.26	31.71
990.424	44.5
990.588	87.32
990.752	120.83
990.915	85.38
991.079	42.17
991.243	46.63
991.407	92.93
991.571	59.22
991.734	91.19
991.898	100.68
992.062	151.45
992.226	66.58
992.389	53.6
992.553	16.02
992.717	53.22
992.88	51.86
993.044	80.92
993.207	62.13
993.371	94.48
993.535	109.79
993.698	65.03
993.862	99.33
994.025	108.82
994.189	71.43
994.352	64.65
994.515	81.89
994.679	89.25
994.842	89.25
995.006	96.62
995.169	30.55
995.332	47.21
995.496	74.72
995.659	18.54
995.822	74.14
995.985	55.54
996.149	102.04
996.312	64.84
996.475	118.7
996.638	28.03
996.801	97.97
996.964	115.8
997.128	54.38
997.291	53.6
997.454	78.79
997.617	19.89
997.78	88.48
997.943	40.43
998.106	107.08
998.269	73.95
998.432	57.09
998.595	49.92
998.758	12.14
998.92	23.77
999.083	12.92
999.246	60.38
999.409	10.59
999.572	-6.46
999.735	66.39
999.897	80.92
1000.06	23.57
1000.223	23.96
1000.386	74.53
1000.548	65.62
1000.711	76.66
1000.874	65.62
1001.036	4.78
1001.199	89.45
1001.361	19.31
1001.524	57.28
1001.687	104.95
1001.849	26.48
1002.012	61.55
1002.174	63.29
1002.337	85.77
1002.499	33.26
1002.661	55.93
1002.824	16.02
1002.986	25.9
1003.149	34.81
1003.311	19.12
1003.473	108.24
1003.636	14.85
1003.798	50.89
1003.96	60.58
1004.123	65.62
1004.285	37.13
1004.447	36.75
1004.609	62.32
1004.771	90.22
1004.933	15.24
1005.096	36.17
1005.258	-17.11
1005.42	35.78
1005.582	79.76
1005.744	47.4
1005.906	14.66
1006.068	32.48
1006.23	10.79
1006.392	-15.95
1006.554	7.3
1006.716	74.92
1006.878	60
1007.04	-28.55
1007.202	29.97
1007.363	11.56
1007.525	46.82
1007.687	75.5
1007.849	80.73
1008.011	-14.98
1008.172	-3.75
1008.334	16.21
1008.496	73.75
1008.658	-6.07
1008.819	-0.06
1008.981	14.27
1009.143	12.14
1009.304	6.33
1009.466	40.82
1009.627	68.13
1009.789	118.31
1009.95	46.82
1010.112	32.87
1010.273	48.95
1010.435	14.27
1010.596	12.14
1010.758	23.57
1010.919	17.76
1011.081	21.05
1011.242	32.29
1011.403	50.89
1011.565	40.43
1011.726	50.5
1011.887	18.73
1012.049	-1.61
1012.21	63.87
1012.371	91.77
1012.532	-36.68
1012.693	12.72
1012.855	13.69
1013.016	18.34
1013.177	58.64
1013.338	29
1013.499	89.25
1013.66	41.78
1013.821	77.05
1013.982	50.7
1014.143	35.78
1014.304	12.14
1014.465	36.75
1014.626	44.88
1014.787	28.03
1014.948	109.02
1015.109	-36.1
1015.27	60.77
1015.431	-8.2
1015.592	-4.52
1015.752	78.4
1015.913	42.75
1016.074	32.68
1016.235	15.05
1016.395	10.2
1016.556	17.37
1016.717	14.47
1016.877	60.58
1017.038	3.42
1017.199	48.57
1017.359	35.58
1017.52	36.17
1017.681	13.3
1017.841	33.45
1018.002	18.92
1018.162	15.24
1018.323	61.16
1018.483	13.69
1018.644	12.72
1018.804	-10.33
1018.964	-9.17
1019.125	-0.26
1019.285	22.99
1019.446	-14.98
1019.606	-5.49
1019.766	-33.2
1019.926	40.23
1020.087	43.53
1020.247	-33.58
1020.407	55.35
1020.567	44.5
1020.728	28.22
1020.888	-14.21
1021.048	-16.53
1021.208	8.46
1021.368	17.95
1021.528	60.19
1021.688	84.02
1021.848	34.23
1022.008	42.75
1022.168	20.67
1022.328	17.95
1022.488	33.65
1022.648	14.47
1022.808	34.81
1022.968	22.02
1023.128	11.75
1023.288	-12.08
1023.448	41.98
1023.608	35
1023.767	6.14
1023.927	3.81
1024.087	-8.78
1024.247	-36.68
1024.406	-6.46
1024.566	-17.31
1024.726	-12.08
1024.885	21.64
1025.045	49.15
1025.205	3.04
1025.364	8.07
1025.524	12.34
1025.683	14.08
1025.843	4.2
1026.003	14.47
1026.162	66.2
1026.321	59.42
1026.481	29.38
1026.64	11.56
1026.8	26.29
1026.959	13.3
1027.119	4.97
1027.278	0.32
1027.437	7.1
1027.597	22.02
1027.756	40.43
1027.915	33.84
1028.074	18.15
1028.234	8.27
1028.393	37.72
1028.552	14.85
1028.711	-63.61
1028.87	39.85
1029.03	-18.66
1029.189	-5.3
1029.348	-32.23
1029.507	-11.11
1029.666	-6.46
1029.825	-30.48
1029.984	-8.01
1030.143	20.47
1030.302	-23.9
1030.461	-32.42
1030.62	25.9
1030.779	30.55
1030.938	6.91
1031.097	-28.74
1031.255	20.67
1031.414	63.87
1031.573	63.1
1031.732	-27.58
1031.891	-3.55
1032.049	45.08
1032.208	43.14
1032.367	-31.65
1032.525	-4.52
1032.684	25.7
1032.843	8.46
1033.001	-48.7
1033.16	144.08
1033.319	59.8
1033.477	22.41
1033.636	-15.37
1033.794	-45.4
1033.953	38.68
1034.111	59.22
1034.27	-16.92
1034.428	36.94
1034.587	-38.04
1034.745	0.9
1034.903	8.07
1035.062	22.41
1035.22	-24.28
1035.378	8.07
1035.537	-20.41
1035.695	24.15
1035.853	19.5
1036.011	46.43
1036.17	8.07
1036.328	-44.43
1036.486	-0.45
1036.644	12.14
1036.802	-79.31
1036.96	-14.6
1037.119	-16.15
1037.277	0.13
1037.435	-7.04
1037.593	-21.96
1037.751	12.14
1037.909	29.19
1038.067	29.19
