Data from oakcork_FLMT105791__194__17-32-07-057.txt Node

Date: Mon Mar 20 17:32:07 GMT 2023
User: antho
Spectrometer: FLMT10579
Trigger mode: 0
Integration Time (sec): 1.000000E-1
Scans to average: 10
Electric dark correction enabled: true
Nonlinearity correction enabled: false
Boxcar width: 0
XAxis mode: Wavelengths
Number of Pixels in Spectrum: 3648
>>>>>Begin Spectral Data<<<<<
345.248	-164.98
345.464	-164.98
345.681	-164.98
345.898	-157.42
346.114	-143.86
346.331	-40.78
346.548	25.48
346.764	4.36
346.981	-11.33
347.197	-21.99
347.414	12.3
347.631	-17.15
347.847	57.83
348.064	-7.07
348.28	14.63
348.497	-18.5
348.713	2.23
348.93	30.52
349.146	1.45
349.363	5.91
349.579	25.67
349.796	22.57
350.012	-13.27
350.229	37.3
350.445	22.96
350.661	-5.13
350.878	9.59
351.094	8.82
351.311	22.57
351.527	26.25
351.743	3.2
351.96	4.94
352.176	48.34
352.392	38.46
352.609	26.45
352.825	-4.55
353.041	-16.57
353.257	3.58
353.474	9.4
353.69	14.43
353.906	26.64
354.122	-33.42
354.339	50.66
354.555	-8.23
354.771	-18.31
354.987	54.35
355.203	64.81
355.42	12.5
355.636	-19.47
355.852	-15.98
356.068	-0.1
356.284	-23.15
356.5	57.64
356.716	16.18
356.932	-5.72
357.148	43.11
357.364	8.43
357.58	29.74
357.796	46.21
358.012	38.46
358.228	53.96
358.444	-52.21
358.66	45.24
358.876	4.17
359.092	-34.2
359.308	4.36
359.524	31.48
359.74	-14.05
359.956	-4.75
360.172	-3.58
360.388	31.68
360.604	-12.88
360.819	78.56
361.035	21.22
361.251	57.45
361.467	9.01
361.683	61.71
361.898	43.69
362.114	37.3
362.33	34.39
362.546	56.67
362.762	14.24
362.977	25.09
363.193	-28.19
363.409	32.84
363.624	-8.23
363.84	17.34
364.056	-37.68
364.271	25.09
364.487	22.18
364.703	-14.82
364.918	9.2
365.134	-15.4
365.35	-2.23
365.565	105.11
365.781	28
365.996	47.95
366.212	55.7
366.427	34.78
366.643	-2.42
366.858	-5.33
367.074	-9.78
367.289	30.9
367.505	98.71
367.72	-9.59
367.936	10.56
368.151	59
368.367	32.65
368.582	21.22
368.798	-18.89
369.013	37.3
369.228	23.15
369.444	26.45
369.659	55.51
369.874	38.46
370.09	58.03
370.305	-41.95
370.52	9.4
370.736	82.44
370.951	4.94
371.166	23.54
371.381	78.37
371.597	41.75
371.812	-38.65
372.027	-19.67
372.242	32.45
372.458	63.45
372.673	1.07
372.888	13.47
373.103	44.66
373.318	110.34
373.533	37.3
373.749	28.38
373.964	-11.53
374.179	45.43
374.394	-17.73
374.609	66.94
374.824	-6.3
375.039	64.61
375.254	5.52
375.469	65.58
375.684	26.06
375.899	44.08
376.114	9.2
376.329	29.93
376.544	47.95
376.759	53.96
376.974	7.07
377.189	-2.42
377.404	-6.68
377.619	55.12
377.834	-41.17
378.049	-34.78
378.264	5.33
378.478	36.52
378.693	-15.21
378.908	41.56
379.123	-0.29
379.338	52.21
379.553	25.48
379.767	48.73
379.982	49.11
380.197	20.44
380.412	24.32
380.626	47.95
380.841	102.98
381.056	36.52
381.271	61.71
381.485	18.89
381.7	-0.29
381.915	50.86
382.129	13.08
382.344	34.58
382.559	29.16
382.773	41.37
382.988	-5.13
383.202	46.79
383.417	-10.17
383.632	121.58
383.846	18.7
384.061	17.15
384.275	11.92
384.49	71.59
384.704	57.45
384.919	46.21
385.133	10.95
385.348	46.21
385.562	6.3
385.777	52.99
385.991	14.63
386.206	12.88
386.42	1.65
386.634	76.43
386.849	51.63
387.063	58.22
387.277	-15.4
387.492	10.17
387.706	-3.2
387.92	16.18
388.135	64.42
388.349	22.18
388.563	49.5
388.778	48.34
388.992	48.53
389.206	75.08
389.42	81.08
389.635	15.4
389.849	49.11
390.063	69.85
390.277	43.5
390.491	100.26
390.706	33.23
390.92	40.78
391.134	32.07
391.348	39.82
391.562	-13.08
391.776	20.25
391.99	7.07
392.205	45.05
392.419	-8.23
392.633	24.7
392.847	74.88
393.061	3
393.275	86.9
393.489	42.53
393.703	14.05
393.917	83.8
394.131	25.48
394.345	55.31
394.559	45.82
394.773	26.45
394.986	57.25
395.2	30.71
395.414	55.7
395.628	-3
395.842	41.56
396.056	6.68
396.27	-41.75
396.484	16.18
396.697	49.89
396.911	87.28
397.125	61.13
397.339	73.53
397.553	36.91
397.766	72.56
397.98	87.48
398.194	76.63
398.408	24.7
398.621	66.36
398.835	54.73
399.049	41.75
399.262	93.87
399.476	52.6
399.69	86.12
399.903	139.98
400.117	54.54
400.331	77.4
400.544	49.7
400.758	143.66
400.971	62.1
401.185	69.65
401.398	34.78
401.612	108.6
401.826	107.82
402.039	123.32
402.253	47.76
402.466	75.85
402.68	68.68
402.893	58.41
403.106	57.25
403.32	57.64
403.533	71.98
403.747	48.53
403.96	71.4
404.174	106.46
404.387	30.9
404.6	60.16
404.814	79.92
405.027	58.41
405.24	38.07
405.454	71.01
405.667	108.79
405.88	11.53
406.094	69.46
406.307	114.8
406.52	74.3
406.733	64.23
406.947	46.98
407.16	130.1
407.373	100.85
407.586	61.13
407.799	17.53
408.012	87.09
408.226	100.46
408.439	123.9
408.652	37.88
408.865	100.46
409.078	123.13
409.291	83.02
409.504	73.53
409.717	113.63
409.93	95.03
410.143	50.86
410.357	44.66
410.57	14.63
410.783	52.02
410.996	72.36
411.209	50.86
411.421	110.73
411.634	86.9
411.847	65.2
412.06	74.69
412.273	61.51
412.486	82.05
412.699	164.98
412.912	75.85
413.125	103.36
413.338	85.35
413.55	115.57
413.763	78.76
413.976	94.06
414.189	67.71
414.402	90.19
414.615	117.12
414.827	66.16
415.04	105.11
415.253	77.79
415.466	112.08
415.678	158
415.891	70.81
416.104	95.23
416.316	87.86
416.529	72.56
416.742	112.86
416.954	105.3
417.167	104.14
417.38	132.23
417.592	127.2
417.805	57.45
418.017	26.64
418.23	136.3
418.442	77.4
418.655	68.1
418.868	115.76
419.08	109.95
419.293	131.26
419.505	111.31
419.718	124.68
419.93	145.99
420.142	103.36
420.355	117.7
420.567	147.73
420.78	104.53
420.992	88.06
421.205	171.95
421.417	50.28
421.629	104.33
421.842	88.64
422.054	54.73
422.266	122.35
422.479	157.23
422.691	82.83
422.903	96.39
423.115	68.49
423.328	108.98
423.54	119.83
423.752	107.43
423.964	97.75
424.177	135.14
424.389	90.77
424.601	200.43
424.813	114.21
425.025	141.92
425.238	154.51
425.45	100.85
425.662	93.29
425.874	412.2
426.086	100.07
426.298	115.18
426.51	125.26
426.722	124.29
426.934	99.49
427.146	150.83
427.358	84.38
427.57	149.28
427.782	84.96
427.994	117.31
428.206	101.43
428.418	84.38
428.63	119.83
428.842	164.59
429.054	130.68
429.266	151.99
429.478	103.56
429.69	123.71
429.902	86.31
430.114	130.88
430.325	104.91
430.537	75.66
430.749	96.97
430.961	68.49
431.173	105.3
431.384	128.55
431.596	50.28
431.808	93.1
432.02	113.25
432.231	159.55
432.443	160.91
432.655	121
432.867	93.68
433.078	162.26
433.29	196.36
433.502	169.82
433.713	182.41
433.925	160.91
434.136	192.1
434.348	134.56
434.56	97.94
434.771	238.99
434.983	111.5
435.194	116.54
435.406	133.59
435.617	193.46
435.829	202.95
436.04	183.19
436.252	198.88
436.463	202.18
436.675	198.3
436.886	187.26
437.098	179.12
437.309	227.94
437.521	189.97
437.732	196.75
437.943	168.85
438.155	195.98
438.366	146.57
438.578	216.51
438.789	166.14
439	214.96
439.211	158.78
439.423	185.71
439.634	192.88
439.845	203.14
440.057	186.48
440.268	208.76
440.479	159.74
440.69	216.71
440.902	186.09
441.113	188.03
441.324	180.67
441.535	218.64
441.746	234.34
441.957	169.24
442.168	189.97
442.38	232.79
442.591	231.62
442.802	171.95
443.013	172.73
443.224	208.18
443.435	198.11
443.646	187.45
443.857	196.94
444.068	204.89
444.279	194.23
444.49	289.75
444.701	213.61
444.912	289.56
445.123	247.32
445.334	240.73
445.545	234.72
445.756	212.44
445.967	195.39
446.178	239.18
446.388	254.49
446.599	244.02
446.81	227.17
447.021	219.42
447.232	279.87
447.443	287.04
447.653	216.71
447.864	284.71
448.075	238.99
448.286	256.23
448.496	282.58
448.707	271.54
448.918	237.82
449.129	334.31
449.339	225.04
449.55	250.81
449.761	252.16
449.971	300.02
450.182	245.57
450.393	298.86
450.603	251.19
450.814	315.71
451.024	271.15
451.235	323.46
451.446	341.09
451.656	343.61
451.867	252.94
452.077	281.22
452.288	337.6
452.498	348.26
452.709	289.17
452.919	297.69
453.13	267.27
453.34	277.93
453.55	245.57
453.761	304.47
453.971	288.78
454.182	315.71
454.392	277.54
454.602	342.06
454.813	305.25
455.023	324.62
455.233	260.49
455.444	282.97
455.654	236.27
455.864	297.5
456.075	287.04
456.285	282.58
456.495	266.31
456.705	313.77
456.916	369.96
457.126	348.45
457.336	273.86
457.546	251.58
457.756	274.06
457.967	359.69
458.177	297.89
458.387	313.97
458.597	267.08
458.807	310.09
459.017	291.69
459.227	280.06
459.437	294.59
459.647	336.64
459.857	347.49
460.068	284.32
460.278	347.29
460.488	331.21
460.698	374.61
460.908	342.45
461.117	267.27
461.327	283.74
461.537	318.81
461.747	348.45
461.957	333.34
462.167	440.1
462.377	366.67
462.587	338.19
462.797	363.76
463.007	362.4
463.216	360.47
463.426	377.71
463.636	355.62
463.846	321.91
464.056	326.37
464.265	386.43
464.475	292.66
464.685	342.06
464.895	392.44
465.104	343.03
465.314	356.98
465.524	350.59
465.733	303.12
465.943	384.69
466.153	387.2
466.362	403.67
466.572	353.88
466.782	312.42
466.991	364.34
467.201	405.61
467.41	309.7
467.62	374.8
467.829	355.24
468.039	398.44
468.249	376.94
468.458	386.62
468.668	395.92
468.877	396.31
469.086	421.88
469.296	440.48
469.505	364.92
469.715	446.49
469.924	397.86
470.134	436.8
470.343	467.03
470.552	395.53
470.762	409.48
470.971	350.59
471.18	399.8
471.39	415.1
471.599	382.75
471.808	424.98
472.018	407.35
472.227	458.89
472.436	466.64
472.645	426.34
472.855	407.93
473.064	500.74
473.273	460.25
473.482	450.37
473.691	479.04
473.901	465.87
474.11	430.6
474.319	533.1
474.528	460.05
474.737	499
474.946	512.36
475.155	498.03
475.364	531.55
475.573	487.76
475.783	495.31
475.992	535.81
476.201	559.64
476.41	489.89
476.619	460.83
476.828	495.9
477.037	461.41
477.245	495.7
477.454	521.08
477.663	505.39
477.872	509.07
478.081	576.88
478.29	506.94
478.499	626.48
478.708	587.54
478.917	633.84
479.125	541.43
479.334	560.22
479.543	540.07
479.752	603.04
479.961	601.88
480.169	624.93
480.378	545.3
480.587	687.12
480.796	583.86
481.004	598.39
481.213	615.63
481.422	652.83
481.63	587.34
481.839	653.8
482.048	685.96
482.256	633.84
482.465	626.87
482.674	662.32
482.882	676.66
483.091	715.41
483.299	650.89
483.508	703.98
483.716	662.52
483.925	684.99
484.134	623.19
484.342	678.21
484.551	712.51
484.759	692.16
484.967	692.16
485.176	694.1
485.384	688.67
485.593	733.62
485.801	664.46
486.01	642.95
486.218	638.49
486.426	560.61
486.635	592.77
486.843	600.71
487.051	639.27
487.26	611.95
487.468	654.38
487.676	697.01
487.885	657.87
488.093	672.21
488.301	715.22
488.509	715.02
488.717	772.18
488.926	713.28
489.134	713.09
489.342	760.36
489.55	690.22
489.758	746.6
489.967	738.66
490.175	828.56
490.383	745.83
490.591	835.92
490.799	723.36
491.007	829.72
491.215	799.69
491.423	772.57
491.631	787.49
491.839	786.13
492.047	813.25
492.255	730.52
492.463	717.54
492.671	736.72
492.879	806.86
493.087	820.23
493.295	796.4
493.503	812.67
493.711	845.22
493.919	864.02
494.127	836.5
494.334	862.85
494.542	799.5
494.75	806.47
494.958	808.02
495.166	869.63
495.374	854.72
495.581	891.14
495.789	850.84
495.997	906.83
496.205	840.18
496.412	873.9
496.62	857.23
496.828	896.76
497.035	861.11
497.243	900.44
497.451	878.55
497.658	909.55
497.866	878.16
498.074	963.8
498.281	859.75
498.489	982.59
498.696	879.13
498.904	877.97
499.112	870.99
499.319	976.39
499.527	883.39
499.734	944.42
499.942	908.97
500.149	900.44
500.357	903.54
500.564	886.49
500.771	905.48
500.979	866.73
501.186	872.35
501.394	909.55
501.601	885.13
501.808	934.54
502.016	886.3
502.223	876.22
502.43	907.03
502.638	878.93
502.845	884.17
503.052	972.13
503.26	904.32
503.467	992.86
503.674	943.26
503.881	987.43
504.089	993.63
504.296	979.1
504.503	919.62
504.71	963.8
504.917	890.75
505.125	974.26
505.332	988.98
505.539	1015.72
505.746	1060.09
505.953	1063.19
506.16	1013.59
506.367	1087.6
506.574	1046.33
506.781	1056.41
506.988	1006.81
507.195	1062.22
507.402	1044.2
507.609	1049.04
507.816	1012.81
508.023	990.73
508.23	1032.19
508.437	972.51
508.644	1051.76
508.851	1109.3
509.058	1069.58
509.265	1066.87
509.472	1054.08
509.679	1161.42
509.885	1041.29
510.092	1104.65
510.299	1069.78
510.506	1095.74
510.713	1092.25
510.92	1068.81
511.126	1113.95
511.333	1156.57
511.54	1134.87
511.746	1180.79
511.953	1174.01
512.16	1179.24
512.367	1132.16
512.573	1126.16
512.78	1131.77
512.987	1125.38
513.193	1139.91
513.4	1092.06
513.606	1141.46
513.813	1149.79
514.02	1138.36
514.226	1181.57
514.433	1219.54
514.639	1118.21
514.846	1150.76
515.052	1114.72
515.259	1148.24
515.465	1184.86
515.672	1194.35
515.878	1297.04
516.085	1173.62
516.291	1229.04
516.497	1158.32
516.704	1180.99
516.91	1103.49
517.117	1062.8
517.323	1042.26
517.529	1101.94
517.736	1095.35
517.942	1137.2
518.148	1105.04
518.354	1165.87
518.561	1157.74
518.767	1162.39
518.973	1202.1
519.179	1227.29
519.386	1156.57
519.592	1184.86
519.798	1193
520.004	1291.62
520.21	1259.26
520.417	1315.25
520.623	1330.37
520.829	1318.16
521.035	1314.87
521.241	1341.22
521.447	1364.46
521.653	1438.28
521.859	1340.83
522.065	1375.7
522.271	1420.65
522.477	1406.7
522.683	1429.56
522.889	1401.66
523.095	1398.95
523.301	1390.43
523.507	1350.71
523.713	1395.27
523.919	1368.73
524.125	1463.08
524.331	1402.25
524.537	1531.67
524.742	1520.63
524.948	1533.61
525.154	1476.06
525.36	1588.82
525.566	1505.9
525.772	1576.81
525.977	1459.21
526.183	1530.12
526.389	1561.7
526.595	1473.74
526.8	1416.2
527.006	1414.45
527.212	1392.75
527.417	1385.39
527.623	1369.11
527.829	1486.53
528.034	1469.28
528.24	1526.24
528.446	1473.35
528.651	1557.44
528.857	1571
529.062	1650.24
529.268	1559.57
529.473	1605.49
529.679	1612.66
529.884	1665.16
530.09	1604.52
530.295	1675.24
530.501	1671.17
530.706	1624.67
530.912	1618.27
531.117	1663.42
531.323	1626.41
531.528	1674.07
531.733	1684.54
531.939	1653.73
532.144	1710.11
532.35	1674.46
532.555	1683.57
532.76	1664.19
532.966	1659.74
533.171	1647.53
533.376	1636.29
533.581	1636.68
533.787	1706.04
533.992	1723.67
534.197	1695.39
534.402	1708.37
534.607	1714.18
534.813	1804.46
535.018	1697.13
535.223	1701.59
535.428	1772.11
535.633	1777.92
535.838	1809.5
536.043	1788.38
536.249	1861.81
536.454	1782.77
536.659	1824.03
536.864	1762.03
537.069	1761.26
537.274	1763.39
537.479	1775.6
537.684	1782.96
537.889	1719.41
538.094	1851.74
538.299	1777.53
538.504	1822.68
538.708	1814.15
538.913	1843.41
539.118	1825
539.323	1845.15
539.528	1772.5
539.733	1807.95
539.938	1810.66
540.142	1835.08
540.347	1787.03
540.552	1776.76
540.757	1767.27
540.962	1743.05
541.166	1737.62
541.371	1731.62
541.576	1777.73
541.781	1702.94
541.985	1825.97
542.19	1824.03
542.395	1865.3
542.599	1881.58
542.804	1872.86
543.008	1868.01
543.213	1848.45
543.418	1823.65
543.622	1836.05
543.827	1775.6
544.031	1885.64
544.236	1894.17
544.44	1889.91
544.645	1940.86
544.849	1846.51
545.054	1886.23
545.258	1937.57
545.463	1947.06
545.667	1844.18
545.872	1928.27
546.076	1882.74
546.281	1909.86
546.485	1851.74
546.689	1918.78
546.894	1900.76
547.098	1911.03
547.302	1898.04
547.507	1920.91
547.711	1923.81
547.915	1996.08
548.119	1841.66
548.324	1903.47
548.528	1915.48
548.732	1903.47
548.936	1960.43
549.141	1976.12
549.345	1886.42
549.549	1947.45
549.753	1943.58
549.957	2019.52
550.161	2015.65
550.366	1963.53
550.57	1922.07
550.774	1977.29
550.978	1925.36
551.182	1991.04
551.386	1913.74
551.59	1913.16
551.794	1925.75
551.998	1943.77
552.202	1946.87
552.406	1917.03
552.61	1955.2
552.814	1964.5
553.018	1992.98
553.222	1936.21
553.426	1943.77
553.63	2021.46
553.833	1936.79
554.037	1899.4
554.241	1981.36
554.445	2005.19
554.649	1973.61
554.853	1959.46
555.056	1976.9
555.26	2032.12
555.464	1943.96
555.668	1969.73
555.871	1995.31
556.075	2021.07
556.279	1945.9
556.483	1905.99
556.686	1951.52
556.89	1958.69
557.094	1950.94
557.297	1884.29
557.501	1913.93
557.704	1851.93
557.908	1938.15
558.112	1921.1
558.315	1949.78
558.519	1868.01
558.722	1881.96
558.926	1872.66
559.129	1817.25
559.333	1809.11
559.536	1843.41
559.74	1798.46
559.943	1806.6
560.147	1807.95
560.35	1858.91
560.553	1825.2
560.757	1811.44
560.96	1900.56
561.164	1803.69
561.367	1906.18
561.57	1834.5
561.774	1858.71
561.977	1792.45
562.18	1794
562.384	1889.91
562.587	1840.5
562.79	1799.04
562.993	1795.36
563.197	1831.78
563.4	1883.71
563.603	1862.01
563.806	1913.93
564.009	1786.25
564.212	1857.16
564.416	1756.42
564.619	1808.73
564.822	1743.43
565.025	1830.62
565.228	1771.33
565.431	1799.04
565.634	1675.04
565.837	1763.39
566.04	1710.69
566.243	1712.43
566.446	1637.07
566.649	1733.55
566.852	1675.82
567.055	1697.71
567.258	1729.48
567.461	1780.25
567.664	1761.45
567.867	1691.7
568.07	1711.66
568.273	1748.08
568.475	1745.95
568.678	1697.13
568.881	1644.82
569.084	1651.21
569.287	1598.32
569.489	1615.37
569.692	1637.45
569.895	1653.34
570.098	1610.72
570.3	1604.52
570.503	1504.35
570.706	1582.82
570.909	1554.72
571.111	1504.74
571.314	1522.76
571.516	1558.79
571.719	1559.96
571.922	1510.74
572.124	1530.51
572.327	1563.06
572.529	1479.94
572.732	1516.56
572.935	1545.81
573.137	1622.34
573.34	1533.22
573.542	1558.79
573.745	1531.09
573.947	1560.54
574.15	1548.33
574.352	1515.59
574.554	1594.64
574.757	1489.24
574.959	1480.52
575.162	1488.08
575.364	1480.52
575.566	1566.74
575.769	1429.56
575.971	1480.52
576.173	1352.65
576.376	1488.08
576.578	1483.81
576.78	1517.91
576.982	1418.91
577.185	1463.28
577.387	1407.67
577.589	1415.03
577.791	1464.05
577.993	1447.97
578.196	1463.08
578.398	1445.26
578.6	1472.58
578.802	1377.25
579.004	1372.99
579.206	1414.26
579.408	1418.52
579.61	1380.74
579.812	1420.85
580.014	1413.87
580.216	1407.86
580.418	1434.21
580.62	1389.07
580.822	1403.21
581.024	1404.57
581.226	1428.6
581.428	1442.93
581.63	1503.19
581.832	1381.71
582.034	1478.78
582.236	1416
582.438	1466.76
582.64	1509.78
582.841	1486.72
583.043	1526.63
583.245	1471.61
583.447	1473.16
583.649	1463.86
583.85	1437.9
584.052	1496.6
584.254	1424.91
584.456	1484.2
584.657	1394.3
584.859	1462.69
585.061	1434.21
585.262	1382.68
585.464	1399.15
585.666	1453.59
585.867	1405.35
586.069	1420.46
586.27	1428.79
586.472	1427.82
586.674	1372.6
586.875	1396.43
587.077	1388.88
587.278	1420.85
587.48	1382.48
587.681	1528.96
587.883	1403.99
588.084	1359.04
588.285	1362.53
588.487	1348.38
588.688	1345.28
588.89	1282.51
589.091	1248.6
589.292	1240.66
589.494	1206.37
589.695	1193.97
589.896	1163.36
590.098	1181.18
590.299	1208.11
590.5	1188.15
590.702	1218.77
590.903	1234.27
591.104	1270.5
591.305	1270.11
591.507	1318.55
591.708	1298.01
591.909	1262.55
592.11	1326.3
592.311	1336.37
592.512	1261.2
592.714	1236.79
592.915	1286.38
593.116	1224.77
593.317	1301.11
593.518	1255
593.719	1261.39
593.92	1304.98
594.121	1312.15
594.322	1302.66
594.523	1286.97
594.724	1215.47
594.925	1251.7
595.126	1284.64
595.327	1290.26
595.528	1247.25
595.729	1272.05
595.929	1273.21
596.13	1271.08
596.331	1282.9
596.532	1258.29
596.733	1354
596.934	1310.8
597.135	1297.43
597.335	1307.12
597.536	1269.53
597.737	1278.05
597.938	1266.82
598.138	1301.5
598.339	1291.23
598.54	1292.58
598.74	1283.67
598.941	1320.87
599.142	1332.5
599.342	1292.97
599.543	1249.38
599.744	1291.62
599.944	1253.84
600.145	1272.43
600.345	1300.92
600.546	1351.87
600.746	1335.4
600.947	1382.1
601.147	1265.65
601.348	1300.14
601.548	1248.99
601.749	1307.12
601.949	1255
602.15	1270.3
602.35	1257.52
602.551	1291.42
602.751	1228.45
602.951	1273.6
603.152	1184.67
603.352	1272.05
603.552	1268.37
603.753	1279.6
603.953	1295.68
604.153	1272.43
604.354	1261.39
604.554	1257.71
604.754	1281.93
604.954	1229.23
605.155	1258.87
605.355	1273.6
605.555	1286
605.755	1283.48
605.955	1286.38
606.155	1319.9
606.356	1245.31
606.556	1288.9
606.756	1257.52
606.956	1169.17
607.156	1283.09
607.356	1218.19
607.556	1255
607.756	1251.12
607.956	1279.41
608.156	1274.95
608.356	1225.74
608.556	1249.96
608.756	1237.37
608.956	1232.72
609.156	1230.2
609.356	1193.97
609.556	1196.68
609.755	1230.2
609.955	1236.4
610.155	1210.05
610.355	1202.1
610.555	1184.09
610.755	1194.94
610.954	1136.42
611.154	1202.49
611.354	1230.97
611.554	1143.21
611.753	1195.71
611.953	1146.5
612.153	1217.8
612.352	1177.69
612.552	1138.75
612.752	1108.14
612.951	1160.64
613.151	1164.52
613.351	1168.78
613.55	1139.72
613.75	1177.69
613.949	1165.29
614.149	1168.78
614.348	1158.51
614.548	1118.99
614.747	1094.96
614.947	1128.87
615.146	1080.43
615.346	1186.02
615.545	1161.22
615.745	1150.96
615.944	1139.14
616.144	1112.4
616.343	1136.62
616.542	1106.2
616.742	1113.95
616.941	1111.04
617.14	1060.28
617.34	1126.93
617.539	1096.9
617.738	1095.35
617.938	1177.69
618.137	1088.96
618.336	1078.11
618.535	1123.44
618.734	1115.5
618.934	1125.57
619.133	1096.9
619.332	1114.72
619.531	1075.59
619.73	1117.24
619.929	1129.45
620.128	1119.18
620.328	1151.73
620.527	1069.97
620.726	1100.97
620.925	1121.89
621.124	1107.56
621.323	1131.58
621.522	1048.08
621.721	1044.98
621.92	1051.95
622.119	1094.96
622.318	1054.86
622.517	1054.28
622.715	1082.56
622.914	1044.01
623.113	1073.65
623.312	1027.54
623.511	1068.23
623.71	1061.44
623.909	1021.92
624.107	1072.1
624.306	970
624.505	1020.95
624.704	999.06
624.902	984.14
625.101	1063.38
625.3	1019.98
625.499	986.27
625.697	999.06
625.896	979.1
626.095	996.15
626.293	961.66
626.492	962.63
626.69	1025.6
626.889	1000.61
627.088	1041.68
627.286	993.63
627.485	965.73
627.683	920.01
627.882	994.99
628.08	911.68
628.279	931.05
628.477	1009.13
628.676	924.27
628.874	976.78
629.073	930.28
629.271	915.17
629.469	948.88
629.668	938.22
629.866	913.23
630.065	952.17
630.263	951.2
630.461	904.7
630.66	970.19
630.858	954.69
631.056	985.11
631.254	1008.16
631.453	945.97
631.651	938.03
631.849	961.86
632.047	964.57
632.245	929.89
632.444	946.94
632.642	946.55
632.84	984.14
633.038	951.98
633.236	938.61
633.434	947.33
633.632	931.83
633.83	940.93
634.028	984.53
634.227	979.68
634.425	1042.65
634.623	984.14
634.821	992.08
635.019	948.88
635.216	946.36
635.414	1011.26
635.612	972.32
635.81	958.56
636.008	1032.96
636.206	938.8
636.404	1010.68
636.602	931.25
636.8	957.79
636.997	1008.94
637.195	1018.82
637.393	976.97
637.591	979.49
637.789	958.76
637.986	1010.68
638.184	974.26
638.382	1012.23
638.58	991.5
638.777	1041.49
638.975	963.8
639.173	990.53
639.37	986.27
639.568	978.33
639.765	1025.21
639.963	989.18
640.161	1012.81
640.358	1009.52
640.556	929.11
640.753	955.08
640.951	915.94
641.148	965.35
641.346	915.55
641.543	936.28
641.741	965.54
641.938	918.85
642.136	948.3
642.333	923.11
642.531	967.48
642.728	971.55
642.925	960.89
643.123	924.08
643.32	940.16
643.517	946.55
643.715	938.41
643.912	911.68
644.109	943.06
644.306	910.13
644.504	918.46
644.701	927.95
644.898	930.86
645.095	915.36
645.293	894.24
645.49	928.34
645.687	902.18
645.884	951.98
646.081	821.39
646.278	878.35
646.475	888.62
646.672	881.07
646.87	872.93
647.067	887.85
647.264	894.24
647.461	836.31
647.658	794.46
647.855	875.06
648.052	860.72
648.249	775.67
648.446	828.95
648.642	830.5
648.839	808.22
649.036	839.41
649.233	764.82
649.43	773.92
649.627	756.1
649.824	797.75
650.021	768.11
650.217	800.27
650.414	779.35
650.611	839.6
650.808	829.14
651.004	824.69
651.201	801.82
651.398	892.5
651.595	809.96
651.791	812.09
651.988	830.5
652.185	794.65
652.381	854.52
652.578	758.62
652.775	768.11
652.971	770.44
653.168	806.86
653.364	843.67
653.561	760.55
653.757	805.89
653.954	823.14
654.15	815.39
654.347	849.1
654.543	830.88
654.74	733.43
654.936	741.57
655.133	765.59
655.329	794.07
655.525	772.57
655.722	805.5
655.918	734.79
656.115	754.74
656.311	682.86
656.507	659.81
656.704	607.49
656.9	687.32
657.096	659.42
657.292	694.49
657.489	721.81
657.685	744.86
657.881	695.46
658.077	697.78
658.273	756.87
658.47	774.12
658.666	736.53
658.862	762.3
659.058	734.59
659.254	818.68
659.45	714.06
659.646	760.17
659.842	754.16
660.038	794.46
660.234	735.95
660.43	780.51
660.626	838.44
660.822	791.55
661.018	761.91
661.214	748.15
661.41	722.77
661.606	790
661.802	765.4
661.998	744.67
662.194	724.91
662.39	786.32
662.586	763.85
662.781	765.01
662.977	763.07
663.173	761.52
663.369	751.06
663.564	741.76
663.76	758.62
663.956	737.11
664.152	778.77
664.347	709.79
664.543	715.22
664.739	746.02
664.934	665.23
665.13	668.72
665.326	712.31
665.521	748.74
665.717	674.53
665.912	667.17
666.108	618.34
666.304	708.63
666.499	706.89
666.695	646.44
666.89	687.32
667.086	714.83
667.281	692.94
667.477	742.92
667.672	685.96
667.867	676.66
668.063	705.14
668.258	679.37
668.454	662.13
668.649	750.29
668.844	697.39
669.04	703.98
669.235	651.86
669.43	657.67
669.626	681.31
669.821	661.74
670.016	631.71
670.211	685.77
670.407	628.42
670.602	684.8
670.797	664.46
670.992	702.43
671.187	621.64
671.382	734.21
671.578	619.31
671.773	694.68
671.968	612.53
672.163	684.41
672.358	681.12
672.553	636.36
672.748	649.34
672.943	712.12
673.138	635.78
673.333	654.96
673.528	606.53
673.723	663.29
673.918	632.29
674.113	628.42
674.308	701.46
674.503	661.36
674.698	694.1
674.892	657.29
675.087	679.76
675.282	631.71
675.477	660.77
675.672	681.31
675.867	633.46
676.061	600.91
676.256	603.04
676.451	623.96
676.646	629.78
676.84	634.23
677.035	591.61
677.23	606.53
677.424	635.01
677.619	659.81
677.814	665.62
678.008	699.91
678.203	588.89
678.397	599.36
678.592	647.79
678.787	691
678.981	615.24
679.176	653.03
679.37	641.59
679.565	606.91
679.759	614.66
679.954	627.84
680.148	643.14
680.342	672.98
680.537	663.49
680.731	624.54
680.926	659.81
681.12	653.99
681.314	588.12
681.509	622.03
681.703	638.69
681.897	656.12
682.092	594.71
682.286	626.87
682.48	706.11
682.674	654.19
682.869	616.79
683.063	627.26
683.257	657.29
683.451	624.93
683.645	652.44
683.839	645.86
684.034	626.29
684.228	667.94
684.422	609.04
684.616	597.81
684.81	649.54
685.004	618.93
685.198	634.04
685.392	638.11
685.586	594.9
685.78	642.37
685.974	655.16
686.168	672.98
686.362	686.54
686.556	590.06
686.75	561.58
686.944	554.41
687.138	560.8
687.331	485.05
687.525	465.87
687.719	419.37
687.913	472.84
688.107	488.92
688.301	464.9
688.494	529.8
688.688	465.87
688.882	465.28
689.076	464.9
689.269	483.11
689.463	547.82
689.657	489.7
689.85	487.56
690.044	534.65
690.238	477.88
690.431	539.68
690.625	536.39
690.818	583.28
691.012	585.02
691.205	613.5
691.399	562.93
691.593	582.31
691.786	620.67
691.98	642.18
692.173	667.17
692.366	660.19
692.56	665.23
692.753	698.75
692.947	616.41
693.14	694.87
693.333	681.12
693.527	633.07
693.72	681.31
693.914	650.31
694.107	642.76
694.3	688.29
694.493	670.27
694.687	717.16
694.88	650.51
695.073	710.37
695.266	752.61
695.46	727.81
695.653	777.99
695.846	738.66
696.039	682.28
696.232	758.23
696.425	790.97
696.618	769.27
696.812	794.27
697.005	874.09
697.198	882.03
697.391	864.02
697.584	855.88
697.777	926.98
697.97	899.86
698.163	909.35
698.356	887.85
698.549	992.86
698.742	921.36
698.935	862.66
699.127	907.8
699.32	909.35
699.513	876.42
699.706	955.08
699.899	964.76
700.092	940.16
700.285	959.34
700.477	916.13
700.67	969.22
700.863	1023.66
701.056	1090.51
701.248	1027.93
701.441	1029.67
701.634	1007.19
701.826	1123.83
702.019	1009.52
702.212	1082.56
702.404	1047.11
702.597	1040.13
702.79	1089.73
702.982	1112.59
703.175	1161.03
703.367	1143.4
703.56	1149.02
703.752	1218.19
703.945	1214.89
704.137	1197.45
704.33	1229.04
704.522	1271.85
704.715	1239.11
704.907	1269.92
705.1	1321.07
705.292	1314.87
705.484	1326.68
705.677	1334.05
705.869	1363.3
706.061	1359.62
706.254	1398.18
706.446	1379.77
706.638	1361.75
706.831	1414.84
707.023	1394.88
707.215	1500.48
707.407	1491.56
707.599	1455.72
707.792	1527.6
707.984	1515.78
708.176	1553.37
708.368	1502.41
708.56	1529.92
708.752	1557.05
708.944	1532.83
709.136	1620.02
709.329	1548.91
709.521	1693.25
709.713	1665.35
709.905	1662.25
710.097	1721.73
710.289	1646.17
710.481	1703.33
710.672	1719.22
710.864	1704.1
711.056	1767.85
711.248	1775.21
711.44	1771.33
711.632	1761.65
711.824	1836.82
712.016	1858.13
712.207	1859.88
712.399	1841.08
712.591	1896.49
712.783	1908.7
712.975	1890.49
713.166	1869.95
713.358	1880.03
713.55	1932.14
713.741	1947.26
713.933	1973.99
714.125	1941.64
714.316	1945.13
714.508	2037.35
714.7	2021.27
714.891	2028.44
715.083	2053.24
715.274	2031.54
715.466	2086.17
715.657	2081.14
715.849	2010.42
716.04	2085.98
716.232	1993.37
716.423	1985.81
716.615	1982.13
716.806	1935.63
716.998	1891.46
717.189	1827.71
717.381	1761.45
717.572	1735.3
717.763	1756.8
717.955	1733.94
718.146	1694.42
718.337	1638.62
718.528	1635.13
718.72	1616.92
718.911	1627.38
719.102	1633
719.293	1637.65
719.485	1618.08
719.676	1632.61
719.867	1574.49
720.058	1609.17
720.249	1613.04
720.44	1670.39
720.632	1680.08
720.823	1720.96
721.014	1856.58
721.205	1861.04
721.396	1961.4
721.587	2048.2
721.778	2107.68
721.969	2147.98
722.16	2205.72
722.351	2236.52
722.542	2371.18
722.733	2354.9
722.924	2261.13
723.115	2333.59
723.305	2282.25
723.496	2322.93
723.687	2190.6
723.878	2225.09
724.069	2216.57
724.26	2230.51
724.45	2154.37
724.641	2164.83
724.832	2201.45
725.023	2169.87
725.213	2180.33
725.404	2173.94
725.595	2173.36
725.785	2167.55
725.976	2235.75
726.167	2203.58
726.357	2224.51
726.548	2319.44
726.739	2252.99
726.929	2363.81
727.12	2395.01
727.31	2369.63
727.501	2331.46
727.691	2364.78
727.882	2376.99
728.072	2448.48
728.263	2415.93
728.453	2501.37
728.644	2492.27
728.834	2495.75
729.024	2466.89
729.215	2452.16
729.405	2505.64
729.596	2558.72
729.786	2581.97
729.976	2607.55
730.167	2593.4
730.357	2615.3
730.547	2619.56
730.737	2664.12
730.928	2683.3
731.118	2714.3
731.308	2621.11
731.498	2666.06
731.688	2811.18
731.879	2817.18
732.069	2829.97
732.259	2920.64
732.449	2914.06
732.639	3054.33
732.829	3045.03
733.019	3132.6
733.209	3155.08
733.399	3184.33
733.589	3274.62
733.779	3290.31
733.969	3308.14
734.159	3377.11
734.349	3457.52
734.539	3499.56
734.729	3443.76
734.919	3468.75
735.109	3600.89
735.299	3526.49
735.488	3523.97
735.678	3577.25
735.868	3551.87
736.058	3541.02
736.248	3499.17
736.437	3504.79
736.627	3498.78
736.817	3652.23
737.007	3574.73
737.196	3653.78
737.386	3632.86
737.576	3591.98
737.765	3736.9
737.955	3692.92
738.144	3787.27
738.334	3745.04
738.524	3720.62
738.713	3753.37
738.903	3747.56
739.092	3762.67
739.282	3788.05
739.471	3808.59
739.661	3827.57
739.85	3833.58
740.04	3815.95
740.229	3877.75
740.419	3896.55
740.608	3926
740.797	3930.84
740.987	4028.88
741.176	3975.6
741.365	3945.18
741.555	3924.64
741.744	3983.35
741.933	4006.6
742.123	4042.05
742.312	4029.26
742.501	4071.89
742.69	4069.76
742.88	4019.38
743.069	4115.09
743.258	4090.68
743.447	4139.12
743.636	4142.99
743.825	4125.17
744.014	4192.21
744.204	4159.46
744.393	4125.17
744.582	4208.09
744.771	4235.41
744.96	4185.04
745.149	4205.77
745.338	4199.37
745.527	4228.05
745.716	4243.94
745.905	4220.69
746.094	4273.58
746.283	4274.16
746.471	4231.34
746.66	4316.59
746.849	4327.44
747.038	4312.72
747.227	4292.57
747.416	4274.55
747.604	4269.51
747.793	4302.84
747.982	4258.27
748.171	4366
748.359	4318.14
748.548	4310.97
748.737	4291.6
748.926	4292.37
749.114	4207.32
749.303	4283.46
749.491	4261.37
749.68	4178.06
749.869	4297.6
750.057	4265.25
750.246	4214.68
750.434	4252.07
750.623	4282.49
750.811	4242.77
751	4280.94
751.188	4224.95
751.377	4284.62
751.565	4205.38
751.754	4200.73
751.942	4177.09
752.131	4255.17
752.319	4244.71
752.507	4282.88
752.696	4235.8
752.884	4259.05
753.072	4254.59
753.261	4259.63
753.449	4254.79
753.637	4182.71
753.825	4254.98
754.014	4218.56
754.202	4193.56
754.39	4241.03
754.578	4258.47
754.766	4245.68
754.955	4178.26
755.143	4248.78
755.331	4220.11
755.519	4193.17
755.707	4192.4
755.895	4200.34
756.083	4245.68
756.271	4094.17
756.459	4173.61
756.647	4209.06
756.835	4154.81
757.023	4098.24
757.211	4149
757.399	4142.22
757.587	4165.27
757.775	4091.84
757.963	4114.51
758.151	4111.99
758.339	4055.23
758.526	4030.43
758.714	4079.64
758.902	3928.32
759.09	3756.86
759.278	3586.75
759.465	3294.19
759.653	2844.5
759.841	2589.14
760.028	2222.38
760.216	1939.7
760.404	1778.89
760.591	1494.28
760.779	1229.04
760.967	1105.04
761.154	917.49
761.342	918.85
761.529	950.81
761.717	988.21
761.905	963.21
762.092	1050.4
762.28	950.81
762.467	969.03
762.655	899.08
762.842	947.71
763.029	927.18
763.217	942.48
763.404	929.31
763.592	968.64
763.779	938.41
763.966	962.83
764.154	1051.76
764.341	1099.03
764.528	1140.11
764.716	1197.84
764.903	1264.1
765.09	1322.62
765.277	1406.9
765.465	1616.92
765.652	1648.11
765.839	1780.44
766.026	1912.96
766.213	1972.06
766.4	2142.75
766.588	2311.5
766.775	2348.51
766.962	2480.45
767.149	2589.72
767.336	2747.43
767.523	2777.85
767.71	2909.79
767.897	3027.78
768.084	3144.03
768.271	3134.73
768.458	3188.98
768.645	3251.76
768.832	3348.05
769.019	3356.96
769.206	3410.44
769.392	3498.2
769.579	3555.16
769.766	3477.08
769.953	3537.15
770.14	3622.4
770.327	3574.35
770.513	3690.59
770.7	3694.66
770.887	3636.15
771.073	3675.68
771.26	3678.97
771.447	3626.85
771.634	3610.19
771.82	3735.16
772.007	3632.28
772.193	3675.48
772.38	3691.56
772.567	3675.09
772.753	3676.26
772.94	3691.18
773.126	3724.11
773.313	3704.35
773.499	3686.53
773.686	3727.21
773.872	3661.92
774.059	3691.95
774.245	3657.85
774.432	3690.98
774.618	3601.47
774.804	3650.88
774.991	3626.46
775.177	3670.25
775.363	3611.35
775.55	3672.38
775.736	3601.08
775.922	3630.14
776.109	3644.87
776.295	3650.88
776.481	3655.91
776.667	3659.79
776.853	3602.25
777.04	3587.13
777.226	3584.23
777.412	3692.34
777.598	3549.93
777.784	3571.25
777.97	3529.59
778.156	3582.87
778.342	3561.17
778.528	3534.43
778.715	3498.59
778.901	3516.22
779.087	3565.63
779.272	3514.87
779.458	3487.16
779.644	3500.53
779.83	3487.74
780.016	3562.91
780.202	3479.02
780.388	3493.94
780.574	3389.7
780.76	3428.84
780.946	3468.37
781.131	3433.49
781.317	3398.04
781.503	3383.89
781.689	3399.97
781.874	3497.43
782.06	3368.2
782.246	3428.26
782.432	3400.75
782.617	3409.08
782.803	3453.25
782.989	3345.34
783.174	3371.1
783.36	3318.6
783.545	3303.49
783.731	3339.14
783.916	3228.31
784.102	3359.48
784.288	3306.01
784.473	3332.94
784.659	3258.93
784.844	3338.56
785.029	3254.66
785.215	3264.35
785.4	3209.52
785.586	3299.22
785.771	3206.42
785.956	3289.73
786.142	3198.67
786.327	3205.06
786.512	3236.64
786.698	3176.58
786.883	3123.5
787.068	3200.8
787.254	3215.53
787.439	3154.5
787.624	3117.49
787.809	3133.18
787.994	3098.89
788.18	3152.17
788.365	3078.16
788.55	3086.88
788.735	3086.68
788.92	3094.24
789.105	3042.32
789.29	3104.31
789.475	2983.03
789.66	3015.19
789.845	2958.04
790.03	2990.39
790.215	3047.93
790.4	3017.71
790.585	3027.59
790.77	2979.54
790.955	2940.99
791.14	2945.25
791.325	3032.05
791.51	2883.44
791.695	2969.47
791.879	2960.36
792.064	2884.02
792.249	2978.19
792.434	2917.93
792.618	2936.14
792.803	2980.32
792.988	2899.52
793.173	2973.34
793.357	2978.96
793.542	2919.87
793.727	2962.88
793.911	2987.1
794.096	2993.88
794.281	3007.64
794.465	3082.62
794.65	2953.58
794.834	3033.21
795.019	3048.9
795.203	3037.86
795.388	3042.12
795.572	3052.97
795.757	3020.42
795.941	3031.47
796.126	3021.2
796.31	2954.55
796.494	2969.27
796.679	2967.72
796.863	2942.54
797.048	3041.73
797.232	2979.93
797.416	3030.88
797.601	3006.47
797.785	3062.85
797.969	3069.83
798.153	2970.63
798.338	3089.4
798.522	3079.71
798.706	3096.95
798.89	3091.92
799.074	3186.08
799.258	3097.15
799.443	3034.57
799.627	3052.97
799.811	3138.03
799.995	3058.4
800.179	3058.59
800.363	3053.17
800.547	3059.56
800.731	3067.89
800.915	2967.92
801.099	2956.29
801.283	3001.82
801.467	3059.75
801.651	3003.95
801.835	3043.48
802.019	3021.97
802.202	3055.3
802.386	2955.71
802.57	2959.59
802.754	2947.77
802.938	2963.07
803.121	2941.37
803.305	3077
803.489	2961.72
803.673	2988.26
803.856	3020.81
804.04	2988.65
804.224	3022.75
804.407	2985.74
804.591	2963.27
804.775	2966.37
804.958	3003.57
805.142	3103.35
805.326	2982.06
805.509	3026.43
805.693	3077.97
805.876	3025.07
806.06	3056.07
806.243	3060.72
806.427	3094.82
806.61	3109.35
806.794	3015
806.977	3100.44
807.16	3042.32
807.344	3059.95
807.527	3024.3
807.71	3022.17
807.894	3060.92
808.077	3084.75
808.26	2998.14
808.444	2997.95
808.627	3068.47
808.81	2978.57
808.993	2960.17
809.177	2903.79
809.36	2920.06
809.543	2967.14
809.726	2844.89
809.909	2842.37
810.092	2848.37
810.276	2841.4
810.459	2828.42
810.642	2818.54
810.825	2786.57
811.008	2809.24
811.191	2685.43
811.374	2711.01
811.557	2703.45
811.74	2763.32
811.923	2657.73
812.106	2628.08
812.289	2611.42
812.472	2621.3
812.654	2598.63
812.837	2563.18
813.02	2500.79
813.203	2492.85
813.386	2356.06
813.569	2361.88
813.751	2254.93
813.934	2335.72
814.117	2281.47
814.3	2237.1
814.482	2170.07
814.665	2166.19
814.848	2084.62
815.03	2043.94
815.213	2053.62
815.396	2014.29
815.578	2035.99
815.761	1953.84
815.943	2004.41
816.126	1901.34
816.309	1915.48
816.491	1834.88
816.674	1774.43
816.856	1862.2
817.039	1836.82
817.221	1889.52
817.403	1833.14
817.586	1828.1
817.768	1849.61
817.951	1781.6
818.133	1757.58
818.315	1817.45
818.498	1850.96
818.68	1887
818.862	1845.93
819.045	1881.19
819.227	1882.74
819.409	1864.53
819.591	1905.6
819.774	1867.24
819.956	1852.9
820.138	1918.78
820.32	1927.88
820.502	1949.39
820.684	2112.91
820.866	2066.02
821.048	2118.14
821.231	2111.17
821.413	2146.04
821.595	2093.92
821.777	2132.48
821.959	2110
822.141	2139.07
822.323	2054.59
822.505	1923.23
822.686	1906.57
822.868	1804.08
823.05	1669.04
823.232	1661.29
823.414	1562.09
823.596	1657.41
823.778	1662.06
823.96	1673.69
824.141	1724.06
824.323	1757.19
824.505	1813.57
824.687	1849.61
824.868	1912.19
825.05	2037.74
825.232	2035.8
825.413	2105.55
825.595	2062.54
825.777	2015.84
825.958	2039.48
826.14	2044.71
826.321	2100.7
826.503	2043.36
826.685	2095.28
826.866	2112.14
827.048	2115.04
827.229	2054.2
827.411	1998.21
827.592	1929.82
827.773	1939.51
827.955	1868.98
828.136	1901.53
828.318	1850.58
828.499	1889.91
828.68	1864.72
828.862	1843.41
829.043	1876.15
829.224	1868.79
829.406	1805.82
829.587	1813.57
829.768	1844.38
829.949	1854.06
830.131	1850
830.312	1924.01
830.493	1887.97
830.674	1873.83
830.855	1843.99
831.036	1844.18
831.218	1913.54
831.399	1938.34
831.58	1851.55
831.761	1870.53
831.942	1862.2
832.123	1838.76
832.304	1816.09
832.485	1822.87
832.666	1880.22
832.847	1887.39
833.028	1860.26
833.209	1868.79
833.389	1823.65
833.57	1796.33
833.751	1796.91
833.932	1874.6
834.113	1886.03
834.294	1838.18
834.475	1895.53
834.655	1924.59
834.836	1935.44
835.017	1909.67
835.198	1839.34
835.378	1897.46
835.559	1939.51
835.74	1854.26
835.92	1886.23
836.101	1885.64
836.281	1943.19
836.462	1944.74
836.643	1938.73
836.823	2009.26
837.004	1993.17
837.184	1989.69
837.365	1962.56
837.545	1965.08
837.726	1955.59
837.906	1985.04
838.087	1923.81
838.267	1973.8
838.448	1927.11
838.628	1972.64
838.808	1942.61
838.989	1988.52
839.169	1908.51
839.349	1992.21
839.53	1996.47
839.71	1991.62
839.89	1924.39
840.07	1983.68
840.251	1910.25
840.431	2002.28
840.611	1971.28
840.791	1921.1
840.971	1949.19
841.151	1909.48
841.332	1945.51
841.512	2006.74
841.692	1884.87
841.872	1932.14
842.052	1946.29
842.232	1961.98
842.412	1899.79
842.592	1942.22
842.772	1936.6
842.952	1966.44
843.132	1916.45
843.312	1881.38
843.492	1904.05
843.672	1931.18
843.851	1861.23
844.031	1969.73
844.211	1907.73
844.391	1890.68
844.571	1899.21
844.751	1927.49
844.93	1870.92
845.11	1874.21
845.29	1927.88
845.47	1971.47
845.649	1905.99
845.829	1930.01
846.009	1891.84
846.188	1936.41
846.368	1892.04
846.547	1873.44
846.727	1924.59
846.907	1865.5
847.086	1905.99
847.266	1921.88
847.445	1886.81
847.625	1837.6
847.804	1822.87
847.984	1852.13
848.163	1830.81
848.343	1873.63
848.522	1831.01
848.701	1848.83
848.881	1837.21
849.06	1855.23
849.239	1811.25
849.419	1833.14
849.598	1748.08
849.777	1743.24
849.957	1783.54
850.136	1678.53
850.315	1666.32
850.494	1674.27
850.674	1690.15
850.853	1758.35
851.032	1724.06
851.211	1766.68
851.39	1734.13
851.569	1694.03
851.748	1680.85
851.927	1745.18
852.107	1690.93
852.286	1661.67
852.465	1668.45
852.644	1719.22
852.823	1722.12
853.002	1725.8
853.181	1714.76
853.359	1708.75
853.538	1661.48
853.717	1730.84
853.896	1595.41
854.075	1521.59
854.254	1510.74
854.433	1420.65
854.611	1517.91
854.79	1414.26
854.969	1492.14
855.148	1518.88
855.327	1490.98
855.505	1516.94
855.684	1540.97
855.863	1523.53
856.041	1513.65
856.22	1594.83
856.399	1562.09
856.577	1633
856.756	1644.62
856.934	1742.66
857.113	1750.22
857.291	1655.67
857.47	1614.01
857.648	1637.45
857.827	1656.44
858.005	1676.79
858.184	1646.95
858.362	1690.35
858.541	1635.13
858.719	1634.55
858.898	1632.8
859.076	1614.98
859.254	1670.2
859.433	1587.27
859.611	1591.15
859.789	1586.11
859.967	1645.59
860.146	1712.05
860.324	1529.34
860.502	1584.95
860.68	1537.48
860.859	1550.85
861.037	1544.46
861.215	1596.38
861.393	1567.9
861.571	1551.24
861.749	1558.6
861.927	1569.45
862.105	1537.09
862.283	1558.41
862.461	1583.21
862.639	1529.92
862.817	1520.82
862.995	1574.49
863.173	1541.94
863.351	1546.01
863.529	1520.82
863.707	1582.24
863.885	1551.82
864.063	1474.9
864.241	1490.59
864.418	1597.16
864.596	1501.06
864.774	1487.49
864.952	1518.88
865.129	1505.51
865.307	1495.05
865.485	1466.57
865.663	1518.88
865.84	1395.08
866.018	1431.7
866.196	1300.33
866.373	1314.28
866.551	1313.51
866.728	1244.34
866.906	1310.02
867.084	1315.64
867.261	1357.49
867.439	1356.52
867.616	1380.35
867.794	1385
867.971	1403.41
868.149	1420.07
868.326	1413.29
868.503	1423.17
868.681	1438.09
868.858	1365.24
869.035	1364.27
869.213	1401.86
869.39	1386.94
869.567	1435.57
869.745	1368.34
869.922	1439.64
870.099	1432.66
870.276	1437.51
870.454	1389.26
870.631	1413.1
870.808	1390.81
870.985	1417.75
871.162	1470.64
871.339	1409.03
871.517	1350.52
871.694	1348.19
871.871	1363.3
872.048	1369.31
872.225	1364.85
872.402	1393.91
872.579	1315.83
872.756	1364.46
872.933	1288.52
873.11	1332.5
873.287	1359.04
873.463	1298.2
873.64	1335.6
873.817	1332.69
873.994	1304.6
874.171	1303.43
874.348	1350.52
874.524	1232.52
874.701	1298.4
874.878	1267.4
875.055	1328.62
875.231	1278.44
875.408	1297.23
875.585	1218.77
875.762	1285.42
875.938	1265.07
876.115	1265.27
876.291	1260.62
876.468	1273.02
876.645	1233.49
876.821	1241.24
876.998	1248.6
877.174	1275.73
877.351	1289.29
877.527	1246.28
877.704	1261
877.88	1248.8
878.057	1222.64
878.233	1267.2
878.409	1219.15
878.586	1276.12
878.762	1270.11
878.938	1242.02
879.115	1131
879.291	1230.39
879.467	1153.09
879.644	1170.33
879.82	1199.39
879.996	1213.34
880.172	1164.13
880.349	1198.04
880.525	1186.22
880.701	1125.77
880.877	1144.76
881.053	1176.92
881.229	1194.74
881.405	1201.72
881.581	1123.83
881.757	1175.95
881.933	1193.58
882.109	1195.52
882.285	1149.21
882.461	1123.83
882.637	1165.1
882.813	1152.89
882.989	1163.16
883.165	1185.64
883.341	1132.94
883.517	1161.22
883.693	1163.36
883.869	1197.65
884.044	1127.71
884.22	1194.55
884.396	1221.48
884.572	1179.24
884.747	1207.34
884.923	1187.77
885.099	1188.54
885.275	1197.45
885.45	1162.97
885.626	1167.04
885.801	1123.83
885.977	1135.84
886.153	1081.98
886.328	1154.44
886.504	1136.04
886.679	1155.41
886.855	1150.37
887.03	1161.42
887.206	1167.42
887.381	1166.07
887.557	1177.11
887.732	1162.58
887.908	1167.04
888.083	1193.77
888.258	1144.17
888.434	1131.97
888.609	1144.37
888.784	1224.97
888.96	1149.02
889.135	1136.42
889.31	1145.53
889.485	1162
889.661	1154.06
889.836	1170.72
890.011	1207.72
890.186	1153.28
890.361	1130.61
890.537	1162.77
890.712	1167.81
890.887	1176.34
891.062	1146.69
891.237	1194.94
891.412	1135.26
891.587	1175.95
891.762	1159.67
891.937	1185.83
892.112	1101.16
892.287	1145.72
892.462	1089.54
892.637	1092.25
892.812	1033.16
892.987	1053.11
893.161	1080.04
893.336	1071.33
893.511	1073.26
893.686	1054.86
893.861	1032.77
894.035	1055.63
894.21	1040.33
894.385	986.66
894.56	1022.89
894.734	961.47
894.909	950.04
895.084	956.43
895.258	928.92
895.433	919.43
895.608	899.86
895.782	872.93
895.957	888.23
896.131	886.68
896.306	823.33
896.48	811.51
896.655	824.1
896.829	770.05
897.004	736.92
897.178	783.42
897.353	740.21
897.527	789.42
897.701	764.04
897.876	716.77
898.05	816.35
898.224	771.21
898.399	841.54
898.573	769.47
898.747	670.66
898.921	710.96
899.096	590.25
899.27	608.85
899.444	623.96
899.618	639.27
899.792	659.03
899.967	655.74
900.141	704.17
900.315	614.66
900.489	643.14
900.663	680.34
900.837	640.43
901.011	611.56
901.185	695.26
901.359	658.26
901.533	651.86
901.707	675.31
901.881	667.56
902.055	627.26
902.229	687.9
902.403	716.96
902.576	657.09
902.75	728.2
902.924	756.29
903.098	720.64
903.272	782.64
903.446	800.47
903.619	766.75
903.793	824.3
903.967	822.17
904.14	852
904.314	841.54
904.488	830.3
904.661	851.62
904.835	827.98
905.009	865.57
905.182	906.45
905.356	868.86
905.529	847.35
905.703	840.57
905.876	801.63
906.05	752.8
906.223	765.2
906.397	698.36
906.57	694.87
906.744	631.52
906.917	666.2
907.09	643.92
907.264	640.24
907.437	608.08
907.61	606.33
907.784	616.21
907.957	637.91
908.13	593.16
908.304	610.01
908.477	564.29
908.65	586.76
908.823	556.15
908.996	624.54
909.17	554.02
909.343	566.61
909.516	558.86
909.689	562.16
909.862	561.58
910.035	587.34
910.208	571.84
910.381	519.15
910.554	627.84
910.727	572.43
910.9	561.77
911.073	540.07
911.246	594.13
911.419	619.31
911.592	613.5
911.765	569.71
911.938	562.74
912.11	557.7
912.283	565.84
912.456	610.21
912.629	545.69
912.802	523.02
912.974	480.78
913.147	471.29
913.32	424.98
913.493	464.7
913.665	464.32
913.838	490.86
914.01	464.32
914.183	493.57
914.356	488.92
914.528	558.28
914.701	582.11
914.873	535.42
915.046	482.14
915.218	464.51
915.391	390.11
915.563	398.05
915.736	441.84
915.908	494.93
916.081	469.74
916.253	474.58
916.425	479.43
916.598	527.28
916.77	491.05
916.942	435.64
917.115	381.39
917.287	455.6
917.459	448.04
917.632	404.64
917.804	362.79
917.976	473.42
918.148	466.64
918.32	460.63
918.493	499.38
918.665	525.15
918.837	490.47
919.009	573.39
919.181	546.46
919.353	518.56
919.525	540.46
919.697	530.38
919.869	535.23
920.041	564.1
920.213	653.8
920.385	561.77
920.557	544.33
920.729	587.93
920.901	580.76
921.073	548.21
921.244	508.1
921.416	577.08
921.588	548.21
921.76	514.5
921.932	581.34
922.103	534.26
922.275	524.38
922.447	527.48
922.619	467.42
922.79	525.15
922.962	496.48
923.134	520.7
923.305	470.13
923.477	428.47
923.648	457.73
923.82	450.75
923.991	416.07
924.163	422.27
924.335	461.6
924.506	389.92
924.677	484.85
924.849	432.93
925.02	456.57
925.192	465.67
925.363	447.27
925.535	447.85
925.706	429.83
925.877	503.45
926.049	421.5
926.22	466.64
926.391	437.38
926.562	454.24
926.734	429.44
926.905	466.06
927.076	372.87
927.247	414.91
927.419	380.04
927.59	374.8
927.761	351.17
927.932	341.67
928.103	355.43
928.274	310.67
928.445	326.56
928.616	279.09
928.787	315.13
928.958	326.95
929.129	293.04
929.3	271.54
929.471	244.8
929.642	209.73
929.813	143.08
929.984	263.21
930.155	167.69
930.326	235.5
930.496	193.46
930.667	154.32
930.838	191.52
931.009	135.91
931.18	168.27
931.35	164.39
931.521	155.68
931.692	93.1
931.863	78.76
932.033	129.71
932.204	103.17
932.374	108.98
932.545	79.73
932.716	136.88
932.886	115.96
933.057	47.95
933.227	61.32
933.398	115.18
933.568	52.6
933.739	25.87
933.909	24.7
934.08	87.86
934.25	9.01
934.421	11.14
934.591	63.06
934.761	29.35
934.932	16.37
935.102	59.77
935.272	37.68
935.443	51.63
935.613	20.63
935.783	52.02
935.953	19.08
936.123	170.21
936.294	-1.07
936.464	45.82
936.634	41.95
936.804	21.02
936.974	-23.15
937.144	43.88
937.314	56.28
937.484	13.85
937.655	32.45
937.825	89.22
937.995	11.92
938.165	60.16
938.334	36.13
938.504	85.93
938.674	33.62
938.844	61.9
939.014	127
939.184	110.15
939.354	138.04
939.524	111.31
939.694	76.05
939.863	101.62
940.033	153.93
940.203	130.3
940.373	102.01
940.542	146.96
940.712	91.55
940.882	121.38
941.051	121.77
941.221	125.45
941.391	139.01
941.56	86.51
941.73	66.36
941.899	176.21
942.069	102.01
942.238	98.52
942.408	60.35
942.577	110.34
942.747	55.12
942.916	47.18
943.086	56.48
943.255	131.65
943.425	97.36
943.594	58.22
943.763	5.91
943.933	13.66
944.102	-4.17
944.271	44.27
944.441	89.61
944.61	60.55
944.779	64.03
944.948	129.71
945.117	38.65
945.287	45.05
945.456	23.15
945.625	17.92
945.794	65.97
945.963	41.17
946.132	66.75
946.301	42.14
946.47	71.4
946.639	17.53
946.808	34.58
946.977	108.79
947.146	103.36
947.315	37.1
947.484	83.6
947.653	67.13
947.822	32.26
947.991	33.03
948.16	131.07
948.329	103.17
948.498	67.52
948.666	63.45
948.835	98.71
949.004	20.63
949.173	46.6
949.341	47.95
949.51	82.63
949.679	90.96
949.847	70.62
950.016	120.8
950.185	144.24
950.353	57.45
950.522	51.05
950.69	109.18
950.859	55.7
951.028	123.13
951.196	90.77
951.365	60.74
951.533	69.65
951.701	103.36
951.87	114.41
952.038	38.07
952.207	76.05
952.375	115.38
952.543	40.2
952.712	73.72
952.88	44.85
953.048	132.62
953.217	78.37
953.385	80.11
953.553	114.21
953.721	35.94
953.89	49.89
954.058	44.66
954.226	41.56
954.394	99.1
954.562	18.5
954.73	65.2
954.898	51.83
955.067	98.91
955.235	62.1
955.403	88.25
955.571	111.11
955.739	80.5
955.907	38.27
956.075	26.64
956.243	40.59
956.41	75.27
956.578	26.83
956.746	27.42
956.914	62.48
957.082	107.43
957.25	104.91
957.418	49.11
957.585	63.26
957.753	133.98
957.921	47.56
958.089	80.31
958.256	97.16
958.424	81.08
958.592	89.22
958.759	55.31
958.927	109.76
959.095	54.35
959.262	61.51
959.43	88.64
959.597	31.48
959.765	75.66
959.932	59.77
960.1	98.33
960.267	53.76
960.435	75.66
960.602	123.32
960.77	57.06
960.937	29.16
961.104	70.04
961.272	24.51
961.439	59
961.606	112.86
961.774	105.88
961.941	43.11
962.108	99.1
962.275	87.28
962.443	115.57
962.61	95.42
962.777	162.46
962.944	86.9
963.111	97.94
963.278	99.3
963.446	97.16
963.613	101.43
963.78	122.35
963.947	93.29
964.114	75.66
964.281	157.61
964.448	114.21
964.615	70.62
964.782	61.51
964.949	123.71
965.116	112.47
965.282	139.4
965.449	77.21
965.616	56.67
965.783	117.31
965.95	124.48
966.117	42.72
966.283	78.56
966.45	109.37
966.617	71.78
966.784	138.24
966.95	110.15
967.117	124.29
967.284	86.51
967.45	95.23
967.617	152.38
967.784	121.58
967.95	151.99
968.117	126.81
968.283	141.92
968.45	205.86
968.616	112.28
968.783	162.46
968.949	146.96
969.116	171.76
969.282	113.25
969.449	122.93
969.615	123.71
969.781	82.25
969.948	96.2
970.114	90
970.28	176.79
970.447	106.66
970.613	119.83
970.779	128.55
970.945	135.91
971.112	127.39
971.278	150.25
971.444	96
971.61	145.99
971.776	76.43
971.942	130.49
972.108	150.06
972.275	108.4
972.441	133.78
972.607	183.77
972.773	89.03
972.939	148.12
973.105	96.2
973.271	81.86
973.437	105.5
973.602	76.43
973.768	107.05
973.934	84.18
974.1	97.36
974.266	13.66
974.432	99.49
974.598	97.94
974.763	148.7
974.929	77.21
975.095	143.86
975.261	66.75
975.426	56.09
975.592	91.16
975.758	154.13
975.923	62.29
976.089	90.96
976.255	118.28
976.42	117.51
976.586	115.18
976.751	89.22
976.917	185.13
977.082	105.11
977.248	71.78
977.413	50.47
977.579	79.53
977.744	75.27
977.91	65.97
978.075	66.16
978.24	102.59
978.406	74.3
978.571	90.96
978.736	66.16
978.902	85.15
979.067	53.76
979.232	44.27
979.397	97.94
979.563	133.39
979.728	89.41
979.893	101.81
980.058	75.85
980.223	144.83
980.388	108.6
980.554	109.18
980.719	93.1
980.884	88.06
981.049	120.8
981.214	67.13
981.379	117.9
981.544	90.77
981.709	113.83
981.874	56.48
982.039	108.4
982.204	125.26
982.368	107.05
982.533	81.86
982.698	135.72
982.863	135.14
983.028	66.36
983.193	118.09
983.357	89.41
983.522	130.3
983.687	78.56
983.852	112.08
984.016	81.28
984.181	107.05
984.346	119.64
984.51	128.75
984.675	115.18
984.839	100.07
985.004	106.27
985.168	158.78
985.333	120.03
985.498	80.5
985.662	102.59
985.827	108.79
985.991	95.61
986.155	87.09
986.32	117.51
986.484	163.81
986.649	115.96
986.813	48.34
986.977	108.21
987.142	90.77
987.306	83.02
987.47	69.65
987.634	95.23
987.799	110.34
987.963	130.49
988.127	116.15
988.291	182.99
988.455	109.95
988.62	79.92
988.784	121.19
988.948	110.34
989.112	97.55
989.276	94.26
989.44	104.72
989.604	79.92
989.768	82.63
989.932	182.8
990.096	63.65
990.26	74.3
990.424	77.4
990.588	81.28
990.752	155.87
990.915	121.96
991.079	102.98
991.243	71.2
991.407	120.03
991.571	89.61
991.734	115.57
991.898	122.74
992.062	170.21
992.226	67.71
992.389	55.7
992.553	47.37
992.717	81.28
992.88	55.31
993.044	75.85
993.207	89.03
993.371	135.72
993.535	94.06
993.698	79.92
993.862	130.88
994.025	105.88
994.189	102.2
994.352	87.86
994.515	105.88
994.679	107.82
994.842	63.84
995.006	116.35
995.169	49.11
995.332	66.55
995.496	115.18
995.659	38.07
995.822	85.54
995.985	100.85
996.149	135.72
996.312	59
996.475	148.12
996.638	50.66
996.801	123.32
996.964	131.65
997.128	54.35
997.291	75.85
997.454	92.9
997.617	51.83
997.78	106.08
997.943	58.61
998.106	111.31
998.269	39.43
998.432	73.33
998.595	67.52
998.758	28.19
998.92	64.03
999.083	1.65
999.246	71.2
999.409	62.1
999.572	9.4
999.735	51.25
999.897	83.21
1000.06	59.77
1000.223	47.95
1000.386	77.98
1000.548	75.46
1000.711	76.63
1000.874	90.19
1001.036	-1.45
1001.199	105.3
1001.361	72.95
1001.524	68.1
1001.687	96.78
1001.849	47.76
1002.012	60.16
1002.174	51.63
1002.337	92.71
1002.499	55.51
1002.661	97.36
1002.824	37.68
1002.986	46.21
1003.149	61.32
1003.311	47.95
1003.473	121.58
1003.636	46.21
1003.798	64.23
1003.96	89.8
1004.123	64.23
1004.285	38.46
1004.447	63.45
1004.609	69.65
1004.771	108.98
1004.933	22.77
1005.096	25.48
1005.258	25.28
1005.42	37.3
1005.582	94.45
1005.744	49.89
1005.906	14.05
1006.068	22.96
1006.23	30.71
1006.392	12.5
1006.554	32.65
1006.716	74.11
1006.878	70.81
1007.04	7.65
1007.202	41.56
1007.363	67.52
1007.525	67.13
1007.687	77.01
1007.849	63.84
1008.011	8.62
1008.172	29.16
1008.334	30.71
1008.496	72.95
1008.658	9.4
1008.819	7.07
1008.981	15.79
1009.143	38.46
1009.304	60.35
1009.466	57.06
1009.627	92.9
1009.789	135.91
1009.95	73.33
1010.112	17.15
1010.273	48.92
1010.435	31.29
1010.596	16.57
1010.758	36.91
1010.919	40.98
1011.081	39.43
1011.242	56.86
1011.403	69.65
1011.565	26.83
1011.726	56.86
1011.887	20.05
1012.049	11.33
1012.21	71.4
1012.371	85.73
1012.532	-31.1
1012.693	44.66
1012.855	30.13
1013.016	44.46
1013.177	73.91
1013.338	34.2
1013.499	85.35
1013.66	47.95
1013.821	63.84
1013.982	58.8
1014.143	66.94
1014.304	31.1
1014.465	49.7
1014.626	71.78
1014.787	41.37
1014.948	126.03
1015.109	-9.01
1015.27	63.26
1015.431	30.32
1015.592	37.3
1015.752	75.46
1015.913	45.24
1016.074	44.46
1016.235	21.41
1016.395	54.15
1016.556	22.18
1016.717	40.98
1016.877	80.5
1017.038	13.47
1017.199	47.76
1017.359	56.48
1017.52	22.38
1017.681	12.11
1017.841	27.03
1018.002	33.62
1018.162	26.25
1018.323	92.13
1018.483	24.12
1018.644	15.4
1018.804	-15.6
1018.964	3.58
1019.125	16.57
1019.285	49.11
1019.446	8.04
1019.606	13.85
1019.766	-6.3
1019.926	60.93
1020.087	46.79
1020.247	-20.25
1020.407	45.43
1020.567	68.1
1020.728	19.67
1020.888	-36.33
1021.048	-6.49
1021.208	23.73
1021.368	28.38
1021.528	67.52
1021.688	39.04
1021.848	45.05
1022.008	12.69
1022.168	7.07
1022.328	24.12
1022.488	34.58
1022.648	-12.3
1022.808	14.43
1022.968	26.25
1023.128	15.98
1023.288	5.13
1023.448	35.55
1023.608	26.45
1023.767	39.23
1023.927	4.75
1024.087	-11.92
1024.247	-30.52
1024.406	5.91
1024.566	-22.57
1024.726	-1.65
1024.885	-2.62
1025.045	39.62
1025.205	38.65
1025.364	23.35
1025.524	44.08
1025.683	25.09
1025.843	29.16
1026.003	38.65
1026.162	77.6
1026.321	38.85
1026.481	16.57
1026.64	12.11
1026.8	14.43
1026.959	38.46
1027.119	21.8
1027.278	-3.39
1027.437	-13.66
1027.597	19.86
1027.756	28.77
1027.915	22.18
1028.074	30.9
1028.234	-6.68
1028.393	26.45
1028.552	5.33
1028.711	-75.85
1028.87	65.97
1029.03	-32.26
1029.189	14.05
1029.348	-26.64
1029.507	-2.23
1029.666	-5.13
1029.825	-17.73
1029.984	-27.03
1030.143	14.05
1030.302	0.1
1030.461	-19.86
1030.62	30.32
1030.779	43.88
1030.938	-6.68
1031.097	-11.92
1031.255	43.88
1031.414	30.52
1031.573	58.8
1031.732	-54.73
1031.891	-13.47
1032.049	59.38
1032.208	29.74
1032.367	4.36
1032.525	6.68
1032.684	-8.04
1032.843	10.56
1033.001	-51.63
1033.16	144.05
1033.319	64.03
1033.477	26.83
1033.636	8.04
1033.794	-23.15
1033.953	59.58
1034.111	44.27
1034.27	19.08
1034.428	14.82
1034.587	-9.2
1034.745	15.6
1034.903	6.68
1035.062	8.43
1035.22	-12.11
1035.378	41.37
1035.537	-23.35
1035.695	39.62
1035.853	-4.55
1036.011	31.48
1036.17	49.89
1036.328	-32.07
1036.486	30.13
1036.644	24.32
1036.802	-56.86
1036.96	-36.52
1037.119	-23.93
1037.277	-4.55
1037.435	-16.76
1037.593	-2.81
1037.751	1.65
1037.909	31.29
1038.067	31.29
