Data from oakcork_FLMT105791__209__17-32-40-045.txt Node

Date: Mon Mar 20 17:32:40 GMT 2023
User: antho
Spectrometer: FLMT10579
Trigger mode: 0
Integration Time (sec): 1.000000E-1
Scans to average: 10
Electric dark correction enabled: true
Nonlinearity correction enabled: false
Boxcar width: 0
XAxis mode: Wavelengths
Number of Pixels in Spectrum: 3648
>>>>>Begin Spectral Data<<<<<
345.248	-152.98
345.464	-152.98
345.681	-152.98
345.898	-142.32
346.114	-134.57
346.331	-47.97
346.548	42.9
346.764	-23.36
346.981	-3.41
347.197	1.24
347.414	14.42
347.631	-12.32
347.847	52.39
348.064	17.32
348.28	23.91
348.497	-53.78
348.713	-11.35
348.93	16.55
349.146	24.11
349.363	-13.87
349.579	10.16
349.796	-7.67
350.012	-36.92
350.229	31.86
350.445	-5.15
350.661	-9.99
350.878	-14.45
351.094	15.39
351.311	12.29
351.527	-0.5
351.743	-3.6
351.96	23.72
352.176	15.97
352.392	32.82
352.609	2.99
352.825	-3.41
353.041	-14.64
353.257	7.64
353.474	2.21
353.69	5.7
353.906	-12.51
354.122	-18.13
354.339	31.08
354.555	-14.84
354.771	-4.57
354.987	70.41
355.203	53.17
355.42	10.54
355.636	-16.97
355.852	10.74
356.068	-6.12
356.284	-22.98
356.5	71.19
356.716	19.07
356.932	23.72
357.148	39.02
357.364	16.36
357.58	37.09
357.796	35.34
358.012	32.05
358.228	15.19
358.444	-42.16
358.66	60.72
358.876	12.87
359.092	-3.02
359.308	21.97
359.524	35.54
359.74	15.19
359.956	2.41
360.172	7.64
360.388	46.97
360.604	-6.12
360.819	90.56
361.035	27.59
361.251	38.25
361.467	-11.74
361.683	30.69
361.898	28.95
362.114	32.05
362.33	51.62
362.546	39.22
362.762	7.44
362.977	-4.96
363.193	-30.73
363.409	37.09
363.624	7.64
363.84	-31.89
364.056	-7.86
364.271	40.38
364.487	36.31
364.703	24.11
364.918	-12.51
365.134	20.04
365.35	9.57
365.565	95.21
365.781	9.19
365.996	24.88
366.212	92.89
366.427	28.17
366.643	-14.06
366.858	2.21
367.074	-10.96
367.289	41.93
367.505	113.23
367.72	-31.5
367.936	-7.67
368.151	44.64
368.367	23.33
368.582	13.45
368.798	13.45
369.013	60.14
369.228	19.26
369.444	9.38
369.659	60.92
369.874	43.29
370.09	66.34
370.305	-36.92
370.52	15.39
370.736	70.6
370.951	-0.89
371.166	66.92
371.381	73.7
371.597	30.11
371.812	-9.41
372.027	7.44
372.242	0.86
372.458	82.81
372.673	11.12
372.888	11.51
373.103	35.73
373.318	103.54
373.533	52.78
373.749	40.96
373.964	-10.19
374.179	52.39
374.394	-22.98
374.609	58.79
374.824	-13.68
375.039	39.61
375.254	-19.1
375.469	63.05
375.684	40.96
375.899	64.99
376.114	5.7
376.329	63.82
376.544	51.81
376.759	45.61
376.974	-0.31
377.189	3.76
377.404	12.48
377.619	56.65
377.834	-7.28
378.049	-6.51
378.264	-7.28
378.478	44.26
378.693	-4.57
378.908	53.36
379.123	11.9
379.338	78.55
379.553	37.28
379.767	39.99
379.982	59.95
380.197	47.55
380.412	28.76
380.626	31.66
380.841	81.26
381.056	45.61
381.271	49.87
381.485	12.67
381.7	17.13
381.915	17.71
382.129	24.49
382.344	52.97
382.559	7.06
382.773	54.14
382.988	-25.3
383.202	49.49
383.417	5.7
383.632	124.47
383.846	14.03
384.061	27.21
384.275	21.01
384.49	47.36
384.704	74.29
384.919	32.63
385.133	26.24
385.348	73.51
385.562	-9.41
385.777	64.4
385.991	2.21
386.206	16.55
386.42	21.01
386.634	68.47
386.849	57.82
387.063	24.11
387.277	-9.99
387.492	7.06
387.706	3.37
387.92	7.06
388.135	43.29
388.349	40.38
388.563	41.16
388.778	43.48
388.992	51.42
389.206	41.35
389.42	95.4
389.635	16.94
389.849	56.27
390.063	71.57
390.277	48.52
390.491	96.95
390.706	58.4
390.92	79.71
391.134	60.72
391.348	76.22
391.562	-15.42
391.776	30.5
391.99	24.49
392.205	56.07
392.419	4.73
392.633	38.64
392.847	75.64
393.061	27.21
393.275	101.02
393.489	36.12
393.703	39.61
393.917	52
394.131	40.57
394.345	69.64
394.559	83
394.773	18.29
394.986	74.87
395.2	21.2
395.414	62.66
395.628	6.67
395.842	46.19
396.056	28.56
396.27	17.52
396.484	81.65
396.697	26.43
396.911	87.27
397.125	59.37
397.339	62.47
397.553	41.54
397.766	79.71
397.98	59.95
398.194	102.96
398.408	44.84
398.621	91.92
398.835	89.2
399.049	89.98
399.262	74.29
399.476	109.74
399.69	91.92
399.903	126.79
400.117	53.55
400.331	96.37
400.544	35.34
400.758	173.48
400.971	94.82
401.185	110.52
401.398	61.69
401.612	120.79
401.826	96.95
402.039	109.55
402.253	58.01
402.466	87.65
402.68	76.42
402.893	110.13
403.106	75.84
403.32	113.62
403.533	63.63
403.747	72.15
403.96	81.07
404.174	106.84
404.387	57.24
404.6	83.78
404.814	116.52
405.027	90.37
405.24	71.57
405.454	77.19
405.667	127.37
405.88	32.05
406.094	101.6
406.307	133.96
406.52	99.86
406.733	40.77
406.947	64.6
407.16	152.17
407.373	136.48
407.586	61.3
407.799	53.94
408.012	121.56
408.226	82.04
408.439	153.14
408.652	53.36
408.865	109.74
409.078	124.47
409.291	111.49
409.504	49.87
409.717	141.13
409.93	100.44
410.143	115.55
410.357	58.59
410.57	83.59
410.783	94.05
410.996	107.61
411.209	104.51
411.421	144.42
411.634	84.75
411.847	78.55
412.06	104.12
412.273	90.37
412.486	116.33
412.699	200.03
412.912	105.48
413.125	133.19
413.338	120.79
413.55	145
413.763	144.03
413.976	119.24
414.189	82.62
414.402	94.82
414.615	150.82
414.827	93.08
415.04	151.01
415.253	136.87
415.466	150.82
415.678	183.37
415.891	117.3
416.104	99.47
416.316	100.64
416.529	74.67
416.742	153.33
416.954	150.43
417.167	132.22
417.38	120.59
417.592	175.03
417.805	94.24
418.017	71.77
418.23	131.25
418.442	120.01
418.655	100.25
418.868	139.38
419.08	145.58
419.293	153.14
419.505	131.64
419.718	144.42
419.93	144.81
420.142	116.91
420.355	147.72
420.567	161.28
420.78	131.83
420.992	144.62
421.205	167.67
421.417	108.39
421.629	123.69
421.842	83.78
422.054	98.5
422.266	168.64
422.479	171.16
422.691	109.94
422.903	135.9
423.115	100.83
423.328	107.42
423.54	126.6
423.752	121.17
423.964	105.87
424.177	148.68
424.389	131.25
424.601	220.57
424.813	120.79
425.025	148.88
425.238	174.07
425.45	150.82
425.662	138.22
425.874	389.51
426.086	145.78
426.298	151.4
426.51	167.09
426.722	136.09
426.934	120.01
427.146	156.63
427.358	127.57
427.57	163.6
427.782	146.17
427.994	144.62
428.206	121.95
428.418	126.02
428.63	168.06
428.842	197.12
429.054	149.46
429.266	173.48
429.478	115.75
429.69	135.7
429.902	115.36
430.114	160.12
430.325	139.97
430.537	110.71
430.749	110.71
430.961	90.56
431.173	110.71
431.384	125.05
431.596	108.77
431.808	130.47
432.02	147.91
432.231	197.32
432.443	204.1
432.655	165.35
432.867	111.68
433.078	165.73
433.29	213.59
433.502	181.23
433.713	196.93
433.925	178.13
434.136	205.65
434.348	129.89
434.56	121.95
434.771	281.79
434.983	108.39
435.194	131.25
435.406	166.7
435.617	213.59
435.829	226.57
436.04	197.51
436.252	187.05
436.463	234.71
436.675	204.1
436.886	178.72
437.098	202.93
437.309	239.36
437.521	187.82
437.732	197.12
437.943	200.42
438.155	191.12
438.366	145
438.578	229.48
438.789	209.52
439	194.8
439.211	175.42
439.423	182.98
439.634	222.5
439.845	232
440.057	202.16
440.268	217.08
440.479	171.93
440.69	197.32
440.902	175.62
441.113	190.15
441.324	182.4
441.535	212.82
441.746	248.27
441.957	180.85
442.168	179.49
442.38	237.81
442.591	225.22
442.802	167.87
443.013	199.25
443.224	230.83
443.435	211.27
443.646	166.7
443.857	196.15
444.068	222.89
444.279	193.44
444.49	269.97
444.701	208.17
444.912	307.56
445.123	236.26
445.334	239.16
445.545	222.7
445.756	194.41
445.967	200.03
446.178	219.21
446.388	248.27
446.599	235.87
446.81	250.6
447.021	198.67
447.232	268.61
447.443	296.71
447.653	236.06
447.864	258.54
448.075	249.43
448.286	251.76
448.496	234.13
448.707	283.92
448.918	237.42
449.129	313.56
449.339	228.9
449.55	255.83
449.761	253.7
449.971	296.32
450.182	262.22
450.393	280.43
450.603	259.51
450.814	282.37
451.024	280.05
451.235	292.64
451.446	316.47
451.656	312.98
451.867	240.33
452.077	258.73
452.288	315.5
452.498	326.93
452.709	242.07
452.919	312.01
453.13	264.16
453.34	318.02
453.55	201.77
453.761	288.96
453.971	275.4
454.182	308.53
454.392	270.55
454.602	324.99
454.813	271.71
455.023	299.81
455.233	260.28
455.444	276.56
455.654	202.55
455.864	278.3
456.075	262.22
456.285	268.03
456.495	287.8
456.705	276.95
456.916	321.7
457.126	314.73
457.336	309.11
457.546	234.32
457.756	272.68
457.967	323.44
458.177	264.74
458.387	274.23
458.597	245.95
458.807	283.34
459.017	243.43
459.227	292.45
459.437	299.03
459.647	317.44
459.857	309.5
460.068	256.21
460.278	333.52
460.488	324.41
460.698	345.14
460.908	281.98
461.117	248.85
461.327	255.25
461.537	312.01
461.747	321.7
461.957	311.43
462.167	385.25
462.377	344.95
462.587	311.05
462.797	337.2
463.007	283.92
463.216	325.38
463.426	361.42
463.636	325.58
463.846	263.77
464.056	289.93
464.265	330.42
464.475	269.97
464.685	312.4
464.895	346.89
465.104	351.93
465.314	350.76
465.524	319.57
465.733	285.86
465.943	385.06
466.153	362
466.362	369.17
466.572	357.16
466.782	311.05
466.991	330.81
467.201	391.26
467.41	291.28
467.62	346.11
467.829	304.07
468.039	324.03
468.249	321.31
468.458	317.24
468.668	341.46
468.877	363.94
469.086	394.74
469.296	367.23
469.505	335.65
469.715	416.25
469.924	370.33
470.134	380.21
470.343	376.73
470.552	341.85
470.762	351.93
470.971	325.77
471.18	375.76
471.39	335.26
471.599	318.79
471.808	391.26
472.018	320.34
472.227	399.2
472.436	405.98
472.645	352.31
472.855	362.97
473.064	404.04
473.273	367.62
473.482	395.13
473.691	420.71
473.901	411.99
474.11	379.63
474.319	469.72
474.528	416.06
474.737	437.37
474.946	414.12
475.155	423.22
475.364	450.54
475.573	427.87
475.783	410.05
475.992	435.82
476.201	464.88
476.41	397.84
476.619	383.31
476.828	431.75
477.037	394.74
477.245	410.05
477.454	458.49
477.663	426.13
477.872	420.9
478.081	519.9
478.29	413.73
478.499	507.7
478.708	473.02
478.917	494.52
479.125	452.29
479.334	465.66
479.543	437.17
479.752	475.15
479.961	475.73
480.169	537.92
480.378	451.71
480.587	563.3
480.796	497.62
481.004	468.56
481.213	514.67
481.422	518.94
481.63	483.09
481.839	519.9
482.048	539.67
482.256	498.98
482.465	534.24
482.674	539.09
482.882	523
483.091	573.77
483.299	523.39
483.508	523.2
483.716	506.73
483.925	541.6
484.134	500.92
484.342	500.92
484.551	562.92
484.759	564.08
484.967	575.12
485.176	567.57
485.384	554.78
485.593	593.72
485.801	565.05
486.01	545.09
486.218	537.54
486.426	438.34
486.635	476.31
486.843	481.54
487.051	537.73
487.26	497.24
487.468	537.34
487.676	559.82
487.885	515.06
488.093	564.27
488.301	559.82
488.509	590.04
488.717	586.75
488.926	558.27
489.134	580.74
489.342	564.47
489.55	541.41
489.758	597.4
489.967	559.43
490.175	670.64
490.383	601.08
490.591	666.76
490.799	579.19
491.007	663.28
491.215	598.76
491.423	603.41
491.631	622.4
491.839	625.3
492.047	659.02
492.255	580.35
492.463	562.92
492.671	607.28
492.879	662.89
493.087	621.62
493.295	652.43
493.503	656.3
493.711	663.66
493.919	671.22
494.127	659.6
494.334	679.16
494.542	624.92
494.75	666.57
494.958	664.25
495.166	727.21
495.374	684.2
495.581	667.35
495.789	653.78
495.997	709.97
496.205	651.46
496.412	673.16
496.62	677.03
496.828	687.88
497.035	668.7
497.243	706.1
497.451	702.03
497.658	695.25
497.866	687.5
498.074	725.28
498.281	695.25
498.489	745.62
498.696	668.51
498.904	690.4
499.112	676.65
499.319	766.35
499.527	691.37
499.734	741.94
499.942	705.71
500.149	675.68
500.357	719.27
500.564	666.57
500.771	709.39
500.979	674.13
501.186	669.09
501.394	720.63
501.601	698.35
501.808	703.19
502.016	698.35
502.223	692.53
502.43	671.41
502.638	712.49
502.845	705.9
503.052	785.73
503.26	706.48
503.467	771.58
503.674	727.99
503.881	748.72
504.089	778.56
504.296	771.97
504.503	692.92
504.71	722.76
504.917	660.76
505.125	739.61
505.332	740
505.539	783.59
505.746	789.41
505.953	799.29
506.16	773.91
506.367	811.69
506.574	818.86
506.781	818.66
506.988	737.68
507.195	798.32
507.402	764.22
507.609	782.63
507.816	713.85
508.023	775.07
508.23	734.19
508.437	739.23
508.644	809.75
508.851	818.86
509.058	815.18
509.265	809.36
509.472	846.56
509.679	910.31
509.885	805.29
510.092	814.01
510.299	794.83
510.506	822.93
510.713	825.64
510.92	819.63
511.126	837.07
511.333	884.73
511.54	839.2
511.746	894.22
511.953	912.24
512.16	906.62
512.367	849.66
512.573	867.1
512.78	864
512.987	855.28
513.193	852.96
513.4	789.79
513.606	833
513.813	890.74
514.02	881.63
514.226	933.55
514.433	911.08
514.639	849.27
514.846	851.21
515.052	861.09
515.259	860.12
515.465	852.37
515.672	871.56
515.878	947.12
516.085	873.49
516.291	936.27
516.497	860.9
516.704	850.05
516.91	821.76
517.117	821.57
517.323	772.55
517.529	814.59
517.736	830.09
517.942	827.77
518.148	826.99
518.354	869.62
518.561	846.56
518.767	876.98
518.973	925.03
519.179	933.17
519.386	873.88
519.592	889.57
519.798	864.77
520.004	957.39
520.21	942.66
520.417	927.35
520.623	1008.73
520.829	996.52
521.035	994.39
521.241	991.29
521.447	1014.15
521.653	1108.7
521.859	1000.4
522.065	1039.73
522.271	1106.57
522.477	1057.94
522.683	1102.31
522.889	1039.15
523.095	1068.79
523.301	1038.76
523.507	1012.41
523.713	1038.57
523.919	1013.96
524.125	1076.93
524.331	1066.08
524.537	1155.2
524.742	1146.1
524.948	1155.59
525.154	1122.26
525.36	1250.72
525.566	1122.07
525.772	1201.89
525.977	1071.5
526.183	1155.4
526.389	1205.58
526.595	1109.67
526.8	1134.66
527.006	1043.22
527.212	1041.28
527.417	1040.7
527.623	1038.76
527.829	1099.21
528.034	1140.28
528.24	1140.28
528.446	1136.02
528.651	1180.78
528.857	1189.49
529.062	1224.56
529.268	1183.1
529.473	1206.93
529.679	1209.64
529.884	1273.58
530.09	1213.71
530.295	1252.85
530.501	1240.45
530.706	1228.63
530.912	1199.38
531.117	1256.73
531.323	1212.55
531.528	1272.81
531.733	1256.73
531.939	1247.43
532.144	1268.35
532.35	1266.03
532.555	1304.19
532.76	1288.69
532.966	1285.98
533.171	1252.46
533.376	1270.09
533.581	1190.85
533.787	1260.79
533.992	1306.91
534.197	1335.39
534.402	1261.76
534.607	1255.56
534.813	1413.66
535.018	1270.68
535.223	1283.46
535.428	1327.83
535.633	1344.49
535.838	1354.76
536.043	1367.94
536.249	1420.44
536.454	1365.8
536.659	1367.16
536.864	1340.62
537.069	1315.62
537.274	1374.14
537.479	1402.81
537.684	1409.4
537.889	1301.09
538.094	1437.69
538.299	1399.32
538.504	1399.13
538.708	1399.13
538.913	1402.04
539.118	1382.27
539.323	1398.35
539.528	1351.86
539.733	1349.53
539.938	1393.51
540.142	1386.15
540.347	1377.43
540.552	1338.87
540.757	1347.59
540.962	1363.67
541.166	1330.93
541.371	1301.48
541.576	1355.54
541.781	1279.39
541.985	1389.25
542.19	1399.9
542.395	1439.62
542.599	1464.62
542.804	1421.6
543.008	1473.92
543.213	1410.17
543.418	1335.19
543.622	1436.52
543.827	1363.09
544.031	1484.18
544.236	1455.51
544.44	1440.79
544.645	1509.76
544.849	1397.97
545.054	1463.84
545.258	1526.03
545.463	1493.1
545.667	1451.25
545.872	1480.89
546.076	1460.74
546.281	1463.45
546.485	1429.16
546.689	1479.15
546.894	1447.76
547.098	1477.6
547.302	1415.79
547.507	1471.78
547.711	1473.72
547.915	1511.89
548.119	1456.28
548.324	1464.03
548.528	1515.18
548.732	1483.99
548.936	1508.6
549.141	1521.58
549.345	1457.06
549.549	1510.53
549.753	1467.33
549.957	1562.07
550.161	1565.56
550.366	1501.62
550.57	1428.39
550.774	1494.65
550.978	1459.77
551.182	1528.36
551.386	1476.82
551.59	1490.19
551.794	1493.48
551.998	1521.58
552.202	1464.23
552.406	1428.58
552.61	1471.98
552.814	1505.69
553.018	1546.96
553.222	1508.98
553.426	1470.82
553.63	1567.88
553.833	1481.08
554.037	1478.95
554.241	1537.85
554.445	1535.14
554.649	1493.29
554.853	1503.95
555.056	1514.22
555.26	1564.2
555.464	1508.79
555.668	1498.72
555.871	1559.94
556.075	1574.47
556.279	1499.88
556.483	1467.91
556.686	1493.29
556.89	1524.1
557.094	1545.21
557.297	1421.22
557.501	1548.9
557.704	1431.87
557.908	1499.88
558.112	1465.78
558.315	1537.46
558.519	1475.08
558.722	1463.26
558.926	1448.92
559.129	1421.22
559.333	1378.4
559.536	1408.43
559.74	1399.13
559.943	1396.61
560.147	1385.18
560.35	1377.43
560.553	1397
560.757	1348.76
560.96	1452.02
561.164	1397.39
561.367	1450.47
561.57	1421.02
561.774	1423.15
561.977	1420.83
562.18	1389.64
562.384	1456.87
562.587	1401.65
562.79	1379.95
562.993	1401.07
563.197	1424.12
563.4	1441.17
563.603	1480.5
563.806	1501.82
564.009	1380.34
564.212	1411.92
564.416	1336.36
564.619	1410.37
564.822	1356.51
565.025	1411.92
565.228	1372.78
565.431	1376.85
565.634	1293.73
565.837	1345.85
566.04	1291.02
566.243	1319.89
566.446	1243.94
566.649	1324.73
566.852	1263.12
567.055	1307.49
567.258	1328.22
567.461	1370.45
567.664	1384.79
567.867	1285.98
568.07	1310.39
568.273	1318.72
568.475	1341.78
568.678	1275.91
568.881	1299.93
569.084	1299.35
569.287	1208.87
569.489	1232.51
569.692	1270.48
569.895	1316.79
570.098	1208.09
570.3	1235.8
570.503	1138.15
570.706	1179.23
570.909	1198.79
571.111	1148.81
571.314	1154.43
571.516	1167.8
571.719	1178.26
571.922	1180.58
572.124	1150.55
572.327	1199.57
572.529	1132.53
572.732	1135.44
572.935	1222.43
573.137	1211.97
573.34	1185.43
573.542	1221.46
573.745	1201.12
573.947	1184.07
574.15	1200.93
574.352	1145.13
574.554	1247.23
574.757	1142.8
574.959	1118.97
575.162	1114.9
575.364	1121.49
575.566	1180
575.769	1101.15
575.971	1139.12
576.173	1028.3
576.376	1121.49
576.578	1168.38
576.78	1206.93
576.982	1056.97
577.185	1103.86
577.387	1082.93
577.589	1087.2
577.791	1099.98
577.993	1150.55
578.196	1120.91
578.398	1114.51
578.6	1109.67
578.802	1061.04
579.004	1063.95
579.206	1076.73
579.408	1067.24
579.61	1067.63
579.812	1096.5
580.014	1068.02
580.216	1068.02
580.418	1062.2
580.62	1072.67
580.822	1029.27
581.024	1082.35
581.226	1124.4
581.428	1063.75
581.63	1165.28
581.832	1082.55
582.034	1110.06
582.236	1043.8
582.438	1127.3
582.64	1167.41
582.841	1134.28
583.043	1195.11
583.245	1098.63
583.447	1106.38
583.649	1093.78
583.85	1092.62
584.052	1128.08
584.254	1054.65
584.456	1162.37
584.657	1043.8
584.859	1099.4
585.061	1069.37
585.262	1070.53
585.464	1051.93
585.666	1106.38
585.867	1054.65
586.069	1096.11
586.27	1070.53
586.472	1089.72
586.674	1037.02
586.875	1044.38
587.077	1024.42
587.278	1054.84
587.48	1055.81
587.681	1150.94
587.883	1043.41
588.084	984.32
588.285	1002.53
588.487	1017.83
588.688	1034.11
588.89	974.82
589.091	942.08
589.292	948.28
589.494	917.09
589.695	920.96
589.896	878.92
590.098	859.54
590.299	922.12
590.5	906.24
590.702	885.51
590.903	926.97
591.104	986.64
591.305	929.29
591.507	1011.05
591.708	991.87
591.909	941.3
592.11	1043.6
592.311	984.7
592.512	935.49
592.714	937.24
592.915	955.84
593.116	945.95
593.317	946.34
593.518	957.58
593.719	963.78
593.92	1003.5
594.121	1017.64
594.322	970.95
594.523	967.27
594.724	915.15
594.925	942.47
595.126	936.85
595.327	948.28
595.528	968.04
595.729	944.21
595.929	948.86
596.13	971.14
596.331	975.21
596.532	963.59
596.733	1011.83
596.934	979.47
597.135	1006.79
597.335	999.82
597.536	936.46
597.737	984.7
597.938	949.05
598.138	956.61
598.339	922.71
598.54	972.89
598.74	937.43
598.941	950.6
599.142	1021.13
599.342	1010.28
599.543	950.22
599.744	970.75
599.944	952.35
600.145	974.82
600.345	973.47
600.546	1037.6
600.746	1008.92
600.947	1036.43
601.147	999.62
601.348	984.51
601.548	943.24
601.749	963.59
601.949	946.54
602.15	923.67
602.35	974.44
602.551	989.16
602.751	923.67
602.951	970.75
603.152	902.56
603.352	977.92
603.552	982.77
603.753	980.25
603.953	971.34
604.153	955.84
604.354	957.97
604.554	949.83
604.754	966.3
604.954	908.56
605.155	961.65
605.355	940.14
605.555	979.86
605.755	1005.82
605.955	974.63
606.155	996.52
606.356	983.35
606.556	1004.47
606.756	957.39
606.956	922.9
607.156	1013.18
607.356	916.51
607.556	955.64
607.756	954.67
607.956	1017.45
608.156	975.79
608.356	924.06
608.556	977.73
608.756	938.98
608.956	919.61
609.156	958.16
609.356	935.1
609.556	898.68
609.755	931.62
609.955	909.34
610.155	940.72
610.355	917.47
610.555	905.46
610.755	946.92
610.954	888.8
611.154	926.39
611.354	952.35
611.554	890.93
611.753	878.53
611.953	872.33
612.153	940.72
612.352	898.68
612.552	857.02
612.752	830.68
612.951	897.52
613.151	877.17
613.351	844.04
613.55	840.94
613.75	886.86
613.949	850.05
614.149	880.86
614.348	856.83
614.548	823.51
614.747	808.39
614.947	864.77
615.146	781.08
615.346	877.95
615.545	896.94
615.745	861.29
615.944	883.18
616.144	853.34
616.343	891.32
616.542	840.56
616.742	877.17
616.941	863.42
617.14	791.54
617.34	837.65
617.539	822.54
617.738	812.27
617.938	872.52
618.137	849.27
618.336	799.48
618.535	873.69
618.734	823.51
618.934	846.37
619.133	837.65
619.332	866.52
619.531	849.47
619.73	832.42
619.929	866.32
620.128	827.96
620.328	895.58
620.527	854.89
620.726	844.04
620.925	829.51
621.124	807.62
621.323	857.02
621.522	797.93
621.721	812.46
621.92	789.02
622.119	857.99
622.318	781.85
622.517	822.93
622.715	790.76
622.914	745.81
623.113	774.68
623.312	730.7
623.511	835.33
623.71	790.76
623.909	769.06
624.107	815.76
624.306	756.47
624.505	769.26
624.704	760.93
624.902	781.66
625.101	784.37
625.3	757.24
625.499	755.11
625.697	761.89
625.896	745.62
626.095	786.69
626.293	721.98
626.492	746.2
626.69	816.34
626.889	747.95
627.088	795.99
627.286	722.95
627.485	749.11
627.683	734.58
627.882	764.8
628.08	701.45
628.279	759.38
628.477	796.38
628.676	706.48
628.874	772.36
629.073	717.72
629.271	698.15
629.469	748.14
629.668	726.25
629.866	730.9
630.065	714.81
630.263	731.09
630.461	712.68
630.66	722.18
630.858	746.78
631.056	767.71
631.254	762.48
631.453	701.06
631.651	768.29
631.849	735.35
632.047	747.56
632.245	712.1
632.444	719.85
632.642	771.78
632.84	759.18
633.038	737.68
633.236	705.71
633.434	693.5
633.632	746.01
633.83	672.77
634.028	736.51
634.227	720.05
634.425	758.21
634.623	773.13
634.821	752.01
635.019	715.59
635.216	704.55
635.414	770.61
635.612	743.49
635.81	745.04
636.008	803.36
636.206	726.05
636.404	779.91
636.602	716.36
636.8	719.08
636.997	776.62
637.195	780.88
637.393	743.88
637.591	753.37
637.789	730.12
637.986	741.75
638.184	743.88
638.382	779.91
638.58	767.51
638.777	782.82
638.975	747.17
639.173	713.07
639.37	748.53
639.568	747.36
639.765	771.78
639.963	732.25
640.161	802.97
640.358	766.54
640.556	699.7
640.753	702.03
640.951	679.75
641.148	732.25
641.346	694.08
641.543	721.21
641.741	741.16
641.938	703.19
642.136	721.01
642.333	691.37
642.531	759.18
642.728	751.43
642.925	733.61
643.123	678.2
643.32	709.2
643.517	717.72
643.715	721.98
643.912	689.43
644.109	731.28
644.306	691.18
644.504	697.18
644.701	694.86
644.898	698.54
645.095	683.62
645.293	700.48
645.49	719.08
645.687	699.51
645.884	711.33
646.081	623.37
646.278	692.53
646.475	680.13
646.672	668.9
646.87	705.71
647.067	687.88
647.264	660.95
647.461	632.28
647.658	605.15
647.855	664.83
648.052	623.37
648.249	601.28
648.446	604.77
648.642	614.65
648.839	598.95
649.036	617.55
649.233	598.18
649.43	579.19
649.627	565.05
649.824	608.64
650.021	596.63
650.217	602.05
650.414	613.68
650.611	641.97
650.808	644.1
651.004	635.96
651.201	642.74
651.398	690.4
651.595	621.62
651.791	622.01
651.988	640.22
652.185	592.37
652.381	625.69
652.578	578.8
652.775	618.72
652.971	619.3
653.168	623.37
653.364	634.99
653.561	584.42
653.757	602.05
653.954	605.73
654.15	595.08
654.347	684.59
654.543	636.35
654.74	514.87
654.936	589.65
655.133	604.96
655.329	610.77
655.525	603.22
655.722	614.26
655.918	580.74
656.115	592.56
656.311	550.32
656.507	504.6
656.704	492.59
656.9	522.04
657.096	516.03
657.292	506.15
657.489	579.58
657.685	568.73
657.881	532.3
658.077	551.29
658.273	553.81
658.47	627.82
658.666	563.69
658.862	582.68
659.058	554
659.254	624.92
659.45	567.57
659.646	594.11
659.842	567.95
660.038	612.9
660.234	555.36
660.43	589.46
660.626	602.44
660.822	624.33
661.018	576.48
661.214	585.39
661.41	522.81
661.606	590.43
661.802	598.37
661.998	574.93
662.194	566.21
662.39	597.4
662.586	606.51
662.781	573.57
662.977	626.47
663.173	614.26
663.369	576.67
663.564	564.85
663.76	606.32
663.956	558.85
664.152	598.18
664.347	528.43
664.543	551.68
664.739	549.55
664.934	514.48
665.13	487.36
665.326	584.03
665.521	554
665.717	535.79
665.912	528.04
666.108	481.35
666.304	542.19
666.499	553.04
666.695	468.17
666.89	554.59
667.086	568.34
667.281	582.29
667.477	615.23
667.672	550.52
667.867	556.33
668.063	554.97
668.258	538.89
668.454	554.39
668.649	617.55
668.844	563.89
669.04	564.66
669.235	539.67
669.43	526.49
669.626	484.26
669.821	510.6
670.016	516.42
670.211	534.44
670.407	519.32
670.602	541.41
670.797	516.61
670.992	578.03
671.187	500.14
671.382	573.96
671.578	520.87
671.773	531.72
671.968	470.69
672.163	500.14
672.358	520.49
672.553	499.37
672.748	502.85
672.943	579
673.138	507.7
673.333	527.07
673.528	505.18
673.723	531.72
673.918	518.94
674.113	460.62
674.308	603.99
674.503	553.42
674.698	561.95
674.892	510.41
675.087	535.79
675.282	514.67
675.477	480.57
675.672	532.69
675.867	509.64
676.061	488.71
676.256	452.29
676.451	503.44
676.646	509.44
676.84	468.76
677.035	477.67
677.23	456.36
677.424	527.46
677.619	542.96
677.814	548
678.008	556.33
678.203	494.72
678.397	481.93
678.592	514.67
678.787	538.12
678.981	475.54
679.176	506.92
679.37	516.22
679.565	489.68
679.759	528.82
679.954	520.68
680.148	551.29
680.342	532.3
680.537	508.86
680.731	510.22
680.926	530.56
681.12	537.54
681.314	505.37
681.509	502.85
681.703	479.02
681.897	487.94
682.092	481.35
682.286	472.82
682.48	584.81
682.674	541.41
682.869	498.79
683.063	515.25
683.257	556.91
683.451	507.5
683.645	522.81
683.839	523.2
684.034	488.71
684.228	560.4
684.422	449.38
684.616	478.44
684.81	499.95
685.004	503.24
685.198	507.31
685.392	527.65
685.586	486.39
685.78	516.22
685.974	513.32
686.168	496.27
686.362	564.66
686.556	490.84
686.75	436.98
686.944	449.77
687.138	464.11
687.331	392.61
687.525	412.18
687.719	357.74
687.913	406.95
688.107	398.23
688.301	373.63
688.494	451.32
688.688	365.88
688.882	375.95
689.076	363.36
689.269	382.73
689.463	444.15
689.657	430.2
689.85	421.29
690.044	402.49
690.238	431.94
690.431	380.21
690.625	430.01
690.818	429.62
691.012	448.61
691.205	482.12
691.399	399.01
691.593	470.89
691.786	512.93
691.98	522.04
692.173	540.44
692.366	514.09
692.56	510.22
692.753	567.76
692.947	484.84
693.14	576.09
693.333	529.98
693.527	487.55
693.72	528.04
693.914	500.34
694.107	507.31
694.3	519.71
694.493	504.21
694.687	579.97
694.88	532.69
695.073	610.58
695.266	573.57
695.46	563.89
695.653	607.48
695.846	625.5
696.039	513.9
696.232	541.8
696.425	604.18
696.618	644.68
696.812	577.06
697.005	665.02
697.198	710.75
697.391	684.59
697.584	699.12
697.777	703.58
697.97	704.35
698.163	715.4
698.356	697.38
698.549	773.13
698.742	732.25
698.935	702.22
699.127	724.31
699.32	683.23
699.513	703
699.706	720.05
699.899	759.38
700.092	729.93
700.285	763.25
700.477	702.61
700.67	776.43
700.863	786.69
701.056	850.44
701.248	827.58
701.441	818.47
701.634	784.37
701.826	899.65
702.019	791.34
702.212	867.49
702.404	821.76
702.597	819.05
702.79	853.73
702.982	863.03
703.175	877.76
703.367	911.66
703.56	922.32
703.752	994.97
703.945	955.06
704.137	980.83
704.33	971.53
704.522	985.48
704.715	984.32
704.907	998.07
705.1	1013.38
705.292	1060.27
705.484	1035.27
705.677	1054.26
705.869	1072.67
706.061	1118.2
706.254	1094.95
706.446	1091.65
706.638	1098.82
706.831	1185.04
707.023	1118.78
707.215	1228.44
707.407	1179.23
707.599	1194.34
707.792	1239.48
707.984	1198.6
708.176	1263.89
708.368	1183.3
708.56	1236.19
708.752	1271.84
708.944	1265.06
709.136	1317.56
709.329	1260.41
709.521	1351.08
709.713	1368.13
709.905	1348.95
710.097	1377.43
710.289	1327.83
710.481	1334.42
710.672	1390.22
710.864	1415.4
711.056	1447.37
711.248	1439.04
711.44	1445.05
711.632	1452.22
711.824	1444.08
712.016	1527.2
712.207	1490.97
712.399	1519.06
712.591	1583.19
712.783	1505.3
712.975	1548.9
713.166	1552.96
713.358	1562.65
713.55	1632.59
713.741	1602.18
713.933	1639.57
714.125	1631.04
714.316	1582.03
714.508	1676.58
714.7	1705.44
714.891	1661.08
715.083	1709.13
715.274	1693.43
715.466	1719.97
715.657	1693.04
715.849	1655.07
716.04	1710.68
716.232	1625.43
716.423	1663.4
716.615	1615.93
716.806	1571.76
716.998	1597.91
717.189	1536.69
717.381	1460.74
717.572	1448.73
717.763	1457.25
717.955	1458.42
718.146	1424.9
718.337	1373.55
718.528	1332.09
718.72	1307.87
718.911	1365.8
719.102	1336.74
719.293	1380.14
719.485	1334.81
719.676	1335.97
719.867	1314.46
720.058	1319.31
720.249	1347.21
720.44	1364.45
720.632	1407.46
720.823	1484.96
721.014	1580.28
721.205	1576.21
721.396	1667.08
721.587	1749.62
721.778	1760.66
721.969	1793.21
722.16	1888.53
722.351	1866.25
722.542	1940.07
722.733	1958.28
722.924	1898.61
723.115	1946.27
723.305	1911.4
723.496	1925.54
723.687	1863.74
723.878	1845.52
724.069	1886.4
724.26	1881.17
724.45	1789.34
724.641	1788.17
724.832	1846.49
725.023	1815.88
725.213	1827.7
725.404	1787.21
725.595	1783.14
725.785	1835.45
725.976	1848.24
726.167	1854.63
726.357	1898.03
726.548	1989.86
726.739	1918.76
726.929	1973.78
727.12	2019.31
727.31	1983.86
727.501	1950.15
727.691	1988.31
727.882	1974.56
728.072	2015.25
728.263	2050.12
728.453	2050.12
728.644	2080.73
728.834	2052.25
729.024	2029.39
729.215	2064.26
729.405	2097.01
729.596	2160.17
729.786	2151.06
729.976	2171.41
730.167	2190.2
730.357	2137.11
730.547	2150.67
730.737	2188.65
730.928	2263.82
731.118	2287.07
731.308	2222.94
731.498	2242.7
731.688	2288.43
731.879	2334.93
732.069	2379.49
732.259	2407.78
732.449	2464.93
732.639	2532.94
732.829	2559.29
733.019	2605.59
733.209	2633.88
733.399	2626.91
733.589	2683.09
733.779	2751.29
733.969	2738.7
734.159	2796.82
734.349	2869.48
734.539	2845.65
734.729	2881.49
734.919	2931.67
735.109	2937.09
735.299	2879.75
735.488	2934.19
735.678	2976.43
735.868	2943.88
736.058	2893.31
736.248	2916.95
736.437	2901.45
736.627	2883.81
736.817	2971.58
737.007	2988.24
737.196	3010.72
737.386	3025.64
737.576	2974.49
737.765	3048.69
737.955	3014.98
738.144	3119.41
738.334	3083.37
738.524	3045.59
738.713	3094.03
738.903	3106.24
739.092	3113.21
739.282	3070.78
739.471	3141.11
739.661	3112.05
739.85	3193.42
740.04	3214.35
740.229	3189.94
740.419	3253.87
740.608	3243.41
740.797	3241.47
740.987	3292.04
741.176	3295.14
741.365	3242.25
741.555	3182.57
741.744	3299.21
741.933	3275.38
742.123	3309.28
742.312	3350.16
742.501	3368.57
742.69	3415.26
742.88	3309.28
743.069	3431.93
743.258	3411.58
743.447	3456.73
743.636	3423.79
743.825	3388.91
744.014	3454.59
744.204	3446.26
744.393	3421.46
744.582	3471.45
744.771	3497.41
744.96	3460.6
745.149	3502.26
745.338	3427.47
745.527	3509.42
745.716	3454.21
745.905	3429.41
746.094	3478.62
746.283	3483.85
746.471	3481.72
746.66	3513.49
746.849	3516.21
747.038	3580.53
747.227	3474.74
747.416	3564.25
747.604	3502.26
747.793	3510.59
747.982	3501.87
748.171	3520.86
748.359	3591.96
748.548	3533.84
748.737	3512.33
748.926	3517.95
749.114	3426.11
749.303	3556.5
749.491	3496.44
749.68	3448.59
749.869	3492.76
750.057	3504.77
750.246	3458.86
750.434	3505.36
750.623	3470.29
750.811	3443.16
751	3520.08
751.188	3460.99
751.377	3487.72
751.565	3447.43
751.754	3433.09
751.942	3442.97
752.131	3497.02
752.319	3447.81
752.507	3412.94
752.696	3496.44
752.884	3499.74
753.072	3462.54
753.261	3483.46
753.449	3476.49
753.637	3426.31
753.825	3491.6
754.014	3496.44
754.202	3458.47
754.39	3468.54
754.578	3501.87
754.766	3449.36
754.955	3411.97
755.143	3508.26
755.331	3401.31
755.519	3433.09
755.707	3433.28
755.895	3385.04
756.083	3422.04
756.271	3365.28
756.459	3411.39
756.647	3454.98
756.835	3384.46
757.023	3356.75
757.211	3390.85
757.399	3394.14
757.587	3363.73
757.775	3288.75
757.963	3366.83
758.151	3354.23
758.339	3296.3
758.526	3286.42
758.714	3318
758.902	3227.52
759.09	3121.15
759.278	2898.54
759.465	2668.56
759.653	2315.75
759.841	2113.48
760.028	1785.85
760.216	1572.15
760.404	1471.78
760.591	1204.61
760.779	1015.12
760.967	921.54
761.154	719.85
761.342	767.71
761.529	724.11
761.717	815.18
761.905	803.36
762.092	845.21
762.28	799.48
762.467	809.17
762.655	749.11
762.842	755.69
763.029	767.71
763.217	761.51
763.404	766.93
763.592	796.38
763.779	758.79
763.966	794.25
764.154	879.11
764.341	918.64
764.528	920.96
764.716	958.16
764.903	1018.42
765.09	1123.23
765.277	1158.88
765.465	1275.71
765.652	1365.61
765.839	1448.73
766.026	1588.61
766.213	1595.4
766.4	1703.89
766.588	1875.36
766.775	1919.92
766.962	2008.66
767.149	2100.11
767.336	2244.64
767.523	2231.08
767.71	2344.62
767.897	2487.21
768.084	2497.1
768.271	2590.09
768.458	2622.26
768.645	2695.69
768.832	2694.14
769.019	2701.69
769.206	2739.86
769.392	2807.67
769.579	2908.03
769.766	2888.46
769.953	2897.18
770.14	2932.64
770.327	2915.01
770.513	2962.48
770.7	3059.54
770.887	2927.6
771.073	3014.01
771.26	2945.23
771.447	2963.83
771.634	2955.31
771.82	3050.63
772.007	2974.68
772.193	2981.46
772.38	3008.59
772.567	3017.11
772.753	2992.7
772.94	3063.22
773.126	2985.14
773.313	3040.56
773.499	3016.53
773.686	3058.57
773.872	2976.04
774.059	3004.91
774.245	2947.36
774.432	2962.09
774.618	2921.01
774.804	2987.66
774.991	2953.18
775.177	2995.99
775.363	2971.97
775.55	2980.3
775.736	2891.95
775.922	2952.98
776.109	2924.31
776.295	2943.88
776.481	2967.13
776.667	2967.9
776.853	2908.42
777.04	2926.63
777.226	2914.04
777.412	3002.39
777.598	2897.76
777.784	2907.84
777.97	2884.2
778.156	2910.36
778.342	2902.22
778.528	2857.27
778.715	2817.94
778.901	2847.97
779.087	2861.92
779.272	2821.04
779.458	2847.78
779.644	2845.26
779.83	2789.27
780.016	2888.27
780.202	2848.94
780.388	2811.55
780.574	2748.19
780.76	2766.02
780.946	2866.38
781.131	2798.18
781.317	2794.88
781.503	2759.82
781.689	2758.65
781.874	2905.71
782.06	2733.27
782.246	2779.58
782.432	2766.02
782.617	2762.92
782.803	2783.07
782.989	2720.1
783.174	2720.1
783.36	2666.24
783.545	2708.28
783.731	2682.12
783.916	2637.17
784.102	2734.24
784.288	2674.95
784.473	2694.33
784.659	2676.89
784.844	2686.39
785.029	2681.54
785.215	2612.76
785.4	2634.27
785.586	2691.04
785.771	2601.14
785.956	2676.31
786.142	2614.89
786.327	2596.87
786.512	2659.46
786.698	2580.02
786.883	2527.51
787.068	2550.57
787.254	2564.13
787.439	2559.48
787.624	2539.72
787.809	2515.89
787.994	2504.65
788.18	2598.42
788.365	2457.57
788.55	2488.57
788.735	2509.3
788.92	2464.55
789.105	2490.31
789.29	2469.58
789.475	2459.51
789.66	2438.97
789.845	2431.8
790.03	2407.58
790.215	2476.56
790.4	2485.66
790.585	2463.77
790.77	2434.51
790.955	2337.64
791.14	2402.35
791.325	2464.35
791.51	2340.55
791.695	2407.39
791.879	2458.73
792.064	2325.05
792.249	2454.08
792.434	2392.08
792.618	2384.33
792.803	2412.81
792.988	2415.14
793.173	2384.33
793.357	2442.85
793.542	2368.64
793.727	2428.51
793.911	2439.75
794.096	2412.43
794.281	2416.3
794.465	2498.06
794.65	2402.74
794.834	2487.02
795.019	2448.08
795.203	2486.25
795.388	2464.74
795.572	2489.35
795.757	2465.9
795.941	2421.53
796.126	2430.64
796.31	2368.83
796.494	2434.13
796.679	2427.93
796.863	2377.36
797.048	2474.62
797.232	2438
797.416	2421.92
797.601	2437.61
797.785	2506.59
797.969	2506.2
798.153	2443.43
798.338	2482.37
798.522	2469.58
798.706	2517.05
798.89	2479.66
799.074	2547.66
799.258	2532.74
799.443	2454.47
799.627	2481.21
799.811	2521.51
799.995	2479.27
800.179	2429.67
800.363	2436.26
800.547	2505.23
800.731	2511.63
800.915	2395.38
801.099	2432
801.283	2472.1
801.467	2441.1
801.651	2409.13
801.835	2484.89
802.019	2447.88
802.202	2483.34
802.386	2419.98
802.57	2391.31
802.754	2448.08
802.938	2426.76
803.121	2405.65
803.305	2447.11
803.489	2413.98
803.673	2488.57
803.856	2458.54
804.04	2427.93
804.224	2461.25
804.407	2438.39
804.591	2387.24
804.775	2404.1
804.958	2419.21
805.142	2546.5
805.326	2450.79
805.509	2458.15
805.693	2482.56
805.876	2478.3
806.06	2499.42
806.243	2502.91
806.427	2450.21
806.61	2524.41
806.794	2431.03
806.977	2475.01
807.16	2483.73
807.344	2512.59
807.527	2496.51
807.71	2449.63
807.894	2452.92
808.077	2494.19
808.26	2400.22
808.444	2383.75
808.627	2486.05
808.81	2422.31
808.993	2359.53
809.177	2331.05
809.36	2381.62
809.543	2391.7
809.726	2312.84
809.909	2314
810.092	2276.61
810.276	2307.22
810.459	2285.14
810.642	2292.5
810.825	2253.75
811.008	2246.19
811.191	2173.73
811.374	2189.04
811.557	2204.15
811.74	2252.39
811.923	2141.96
812.106	2143.12
812.289	2108.83
812.472	2125.88
812.654	2152.81
812.837	2076.47
813.02	2015.05
813.203	1998.97
813.386	1915.66
813.569	1880.4
813.751	1840.1
813.934	1879.04
814.117	1853.66
814.3	1854.63
814.482	1762.41
814.665	1733.92
814.848	1713.39
815.03	1653.91
815.213	1634.14
815.396	1619.61
815.578	1632.59
815.761	1545.99
815.943	1672.12
816.126	1564.01
816.309	1514.41
816.491	1484.57
816.674	1405.72
816.856	1459
817.039	1465
817.221	1531.27
817.403	1485.54
817.586	1492.32
817.768	1508.4
817.951	1437.69
818.133	1436.33
818.315	1454.73
818.498	1487.09
818.68	1542.5
818.862	1521.77
819.045	1553.35
819.227	1530.68
819.409	1527.78
819.591	1544.44
819.774	1520.22
819.956	1500.46
820.138	1579.31
820.32	1567.5
820.502	1604.89
820.684	1662.43
820.866	1678.51
821.048	1693.43
821.231	1720.36
821.413	1709.71
821.595	1727.53
821.777	1713.77
821.959	1717.46
822.141	1769.77
822.323	1636.86
822.505	1587.26
822.686	1514.99
822.868	1461.52
823.05	1322.79
823.232	1350.89
823.414	1307.1
823.596	1344.11
823.778	1317.37
823.96	1378.01
824.141	1374.33
824.323	1398.35
824.505	1421.02
824.687	1510.15
824.868	1552
825.05	1666.31
825.232	1667.08
825.413	1702.73
825.595	1660.3
825.777	1656.43
825.958	1673.86
826.14	1646.74
826.321	1710.48
826.503	1678.13
826.685	1715.13
826.866	1701.57
827.048	1713.19
827.229	1674.44
827.411	1606.63
827.592	1561.88
827.773	1528.75
827.955	1500.27
828.136	1547.15
828.318	1488.25
828.499	1544.44
828.68	1462.48
828.862	1498.52
829.043	1533.98
829.224	1521.58
829.406	1496.78
829.587	1458.61
829.768	1509.37
829.949	1508.6
830.131	1488.25
830.312	1526.42
830.493	1532.04
830.674	1548.12
830.855	1507.24
831.036	1490
831.218	1549.86
831.399	1557.61
831.58	1516.35
831.761	1516.54
831.942	1546.96
832.123	1503.75
832.304	1463.65
832.485	1468.1
832.666	1492.32
832.847	1529.52
833.028	1517.7
833.209	1514.02
833.389	1460.55
833.57	1389.25
833.751	1473.33
833.932	1509.76
834.113	1498.91
834.294	1493.29
834.475	1524.48
834.655	1562.46
834.836	1559.36
835.017	1526.03
835.198	1465.97
835.378	1529.72
835.559	1590.94
835.74	1511.5
835.92	1542.31
836.101	1527.2
836.281	1572.92
836.462	1556.26
836.643	1577.57
836.823	1612.64
837.004	1590.55
837.184	1608.76
837.365	1591.33
837.545	1627.94
837.726	1559.55
837.906	1633.18
838.087	1614.96
838.267	1576.8
838.448	1518.48
838.628	1533.59
838.808	1554.32
838.989	1627.75
839.169	1540.18
839.349	1588.81
839.53	1617.48
839.71	1628.72
839.89	1576.02
840.07	1654.29
840.251	1567.5
840.431	1632.79
840.611	1585.9
840.791	1558.2
840.971	1562.46
841.151	1557.81
841.332	1570.79
841.512	1591.13
841.692	1532.82
841.872	1568.08
842.052	1567.11
842.232	1576.8
842.412	1501.43
842.592	1537.08
842.772	1575.44
842.952	1553.35
843.132	1532.04
843.312	1558.78
843.492	1549.28
843.672	1550.83
843.851	1470.82
844.031	1554.13
844.211	1540.56
844.391	1521.77
844.571	1541.15
844.751	1570.79
844.93	1506.27
845.11	1548.12
845.29	1555.1
845.47	1562.65
845.649	1538.05
845.829	1585.9
846.009	1538.63
846.188	1551.22
846.368	1559.94
846.547	1512.08
846.727	1570.98
846.907	1506.47
847.086	1529.72
847.266	1561.49
847.445	1493.1
847.625	1527.2
847.804	1471.2
847.984	1512.47
848.163	1483.8
848.343	1498.13
848.522	1517.51
848.701	1491.74
848.881	1472.37
849.06	1490.97
849.239	1460.55
849.419	1491.55
849.598	1420.44
849.777	1437.69
849.957	1414.63
850.136	1354.18
850.315	1359.99
850.494	1339.26
850.674	1381.3
850.853	1417.34
851.032	1364.84
851.211	1451.63
851.39	1414.82
851.569	1348.95
851.748	1342.94
851.927	1424.32
852.107	1366.97
852.286	1350.5
852.465	1343.33
852.644	1409.4
852.823	1402.42
853.002	1386.54
853.181	1357.09
853.359	1423.74
853.538	1314.27
853.717	1397.19
853.896	1300.51
854.075	1246.46
854.254	1243.55
854.433	1144.35
854.611	1210.42
854.79	1167.41
854.969	1239.48
855.148	1190.46
855.327	1188.91
855.505	1251.88
855.684	1226.11
855.863	1242
856.041	1218.36
856.22	1263.31
856.399	1234.83
856.577	1340.04
856.756	1340.62
856.934	1398.94
857.113	1422.77
857.291	1320.47
857.47	1292.76
857.648	1358.64
857.827	1342.56
858.005	1355.34
858.184	1292.76
858.362	1406.49
858.541	1302.64
858.719	1333.45
858.898	1330.74
859.076	1316.79
859.254	1383.82
859.433	1301.87
859.611	1288.31
859.789	1246.07
859.967	1354.37
860.146	1329.77
860.324	1257.11
860.502	1314.27
860.68	1259.05
860.859	1267.19
861.037	1261.38
861.215	1272.81
861.393	1285.21
861.571	1285.4
861.749	1271.26
861.927	1283.46
862.105	1306.13
862.283	1242.97
862.461	1246.84
862.639	1238.71
862.817	1238.9
862.995	1273
863.173	1226.31
863.351	1251.3
863.529	1240.84
863.707	1324.54
863.885	1277.26
864.063	1216.62
864.241	1198.21
864.418	1285.4
864.596	1208.68
864.774	1196.47
864.952	1220.69
865.129	1244.33
865.307	1178.84
865.485	1117.03
865.663	1241.42
865.84	1140.09
866.018	1164.11
866.196	1025.2
866.373	1086.62
866.551	1059.68
866.728	976.57
866.906	1044.77
867.084	1058.52
867.261	1089.52
867.439	1117.81
867.616	1119.55
867.794	1111.61
867.971	1136.99
868.149	1115.48
868.326	1177.1
868.503	1131.56
868.681	1115.29
868.858	1119.36
869.035	1104.63
869.213	1130.4
869.39	1101.73
869.567	1209.06
869.745	1127.88
869.922	1132.73
870.099	1154.62
870.276	1151.91
870.454	1148.23
870.631	1136.99
870.808	1113.16
870.985	1163.53
871.162	1205.96
871.339	1133.5
871.517	1082.74
871.694	1070.15
871.871	1128.08
872.048	1083.9
872.225	1091.85
872.402	1099.21
872.579	1047.87
872.756	1117.81
872.933	1062.59
873.11	1079.83
873.287	1101.73
873.463	1068.02
873.64	1063.37
873.817	1108.51
873.994	1097.47
874.171	1061.23
874.348	1068.21
874.524	1025.39
874.701	1059.3
874.878	1005.24
875.055	1060.85
875.231	1030.82
875.408	1061.04
875.585	1007.57
875.762	1053.87
875.938	1044.18
876.115	1038.37
876.291	1002.92
876.468	1033.33
876.645	1007.37
876.821	993.62
876.998	1036.63
877.174	1019.58
877.351	984.51
877.527	987.03
877.704	1011.44
877.88	1015.51
878.057	969.98
878.233	1037.98
878.409	969.79
878.586	1001.95
878.762	1006.4
878.938	987.03
879.115	931.62
879.291	986.45
879.467	959.52
879.644	969.2
879.82	973.47
879.996	924.26
880.172	923.87
880.349	966.3
880.525	1002.72
880.701	923.29
880.877	929.68
881.053	966.1
881.229	967.65
881.405	1011.25
881.581	927.16
881.757	948.47
881.933	949.64
882.109	960.29
882.285	934.14
882.461	904.11
882.637	961.07
882.813	932.78
882.989	940.92
883.165	1002.53
883.341	937.24
883.517	983.74
883.693	947.89
883.869	979.47
884.044	906.62
884.22	967.27
884.396	983.93
884.572	972.3
884.747	973.85
884.923	952.54
885.099	962.62
885.275	992.07
885.45	914.57
885.626	926.19
885.801	915.92
885.977	933.17
886.153	894.61
886.328	946.34
886.504	914.37
886.679	931.62
886.855	919.02
887.03	930.65
887.206	952.54
887.381	957.19
887.557	946.92
887.732	939.17
887.908	948.86
888.083	981.8
888.258	931.23
888.434	926.58
888.609	912.05
888.784	979.09
888.96	938.01
889.135	911.66
889.31	919.41
889.485	943.44
889.661	943.24
889.836	958.55
890.011	953.7
890.186	928.13
890.361	930.45
890.537	940.92
890.712	978.12
890.887	905.85
891.062	931.81
891.237	971.14
891.412	907.01
891.587	934.33
891.762	937.43
891.937	966.3
892.112	888.61
892.287	944.4
892.462	905.46
892.637	866.13
892.812	833.19
892.987	844.62
893.161	834.55
893.336	845.79
893.511	844.04
893.686	858.57
893.861	859.54
894.035	835.71
894.21	865.74
894.385	814.79
894.56	832.23
894.734	773.13
894.909	758.02
895.084	778.75
895.258	747.75
895.433	775.84
895.608	740.78
895.782	722.18
895.957	699.31
896.131	691.56
896.306	642.35
896.48	652.04
896.655	662.89
896.829	625.3
897.004	598.76
897.178	641
897.353	601.08
897.527	653.98
897.701	646.81
897.876	615.81
898.05	646.03
898.224	626.27
898.399	662.12
898.573	623.75
898.747	498.4
898.921	556.33
899.096	474.37
899.27	502.47
899.444	506.34
899.618	531.14
899.792	538.7
899.967	530.75
900.141	584.62
900.315	495.88
900.489	516.8
900.663	544.7
900.837	534.82
901.011	511.96
901.185	599.15
901.359	565.44
901.533	550.52
901.707	536.18
901.881	546.45
902.055	493.55
902.229	535.21
902.403	596.05
902.576	555.17
902.75	536.57
902.924	651.85
903.098	589.46
903.272	647.78
903.446	647.58
903.619	655.72
903.793	669.86
903.967	636.54
904.14	713.46
904.314	693.89
904.488	686.91
904.661	689.05
904.835	681.68
905.009	708.81
905.182	710.16
905.356	710.75
905.529	706.1
905.703	650.88
905.876	657.47
906.05	619.3
906.223	588.49
906.397	571.83
906.57	546.84
906.744	548.19
906.917	525.14
907.09	536.18
907.264	524.55
907.437	519.9
907.61	459.84
907.784	526.3
907.957	504.79
908.13	469.53
908.304	523.39
908.477	476.12
908.65	472.82
908.823	427.87
908.996	529.79
909.17	474.96
909.343	476.51
909.516	470.31
909.689	473.21
909.862	416.83
910.035	478.44
910.208	412.96
910.381	464.11
910.554	536.57
910.727	488.71
910.9	441.44
911.073	452.09
911.246	542.96
911.419	520.68
911.592	498.01
911.765	452.87
911.938	439.69
912.11	461.59
912.283	436.21
912.456	524.75
912.629	482.51
912.802	458.49
912.974	399.2
913.147	396.49
913.32	332.94
913.493	363.55
913.665	373.82
913.838	405.98
914.01	401.14
914.183	420.32
914.356	391.64
914.528	482.9
914.701	480.96
914.873	463.33
915.046	411.41
915.218	349.99
915.391	344.95
915.563	341.85
915.736	403.66
915.908	409.86
916.081	382.34
916.253	400.36
916.425	406.76
916.598	414.7
916.77	397.84
916.942	393.58
917.115	319.57
917.287	393.97
917.459	395.33
917.632	319.76
917.804	281.6
917.976	391.26
918.148	369.94
918.32	378.47
918.493	427.87
918.665	426.13
918.837	421.29
919.009	452.09
919.181	460.42
919.353	423.22
919.525	397.65
919.697	420.9
919.869	434.07
920.041	464.69
920.213	535.79
920.385	500.72
920.557	443.76
920.729	473.02
920.901	440.27
921.073	450.54
921.244	437.17
921.416	470.89
921.588	455.97
921.76	401.52
921.932	462.75
922.103	424.97
922.275	445.7
922.447	435.82
922.619	377.11
922.79	410.44
922.962	405.79
923.134	458.68
923.305	388.74
923.477	378.86
923.648	354.44
923.82	380.79
923.991	329.45
924.163	361.03
924.335	386.61
924.506	358.32
924.677	411.02
924.849	360.06
925.02	382.54
925.192	402.88
925.363	388.93
925.535	369.56
925.706	361.03
925.877	407.53
926.049	347.86
926.22	370.14
926.391	377.89
926.562	402.11
926.734	360.06
926.905	407.34
927.076	310.66
927.247	348.44
927.419	282.76
927.59	280.24
927.761	285.28
927.932	312.21
928.103	288.18
928.274	249.24
928.445	276.56
928.616	262.8
928.787	269.39
928.958	274.62
929.129	253.89
929.3	258.54
929.471	199.06
929.642	177.36
929.813	147.91
929.984	220.95
930.155	148.49
930.326	193.25
930.496	142.48
930.667	106.45
930.838	138.61
931.009	87.85
931.18	149.65
931.35	123.69
931.521	131.25
931.692	79.71
931.863	58.59
932.033	94.82
932.204	123.5
932.374	110.52
932.545	70.8
932.716	111.49
932.886	89.79
933.057	34.37
933.227	51.04
933.398	112.45
933.568	43.87
933.739	9.38
933.909	38.83
934.08	72.35
934.25	11.71
934.421	13.26
934.591	25.46
934.761	37.86
934.932	-0.69
935.102	33.41
935.272	25.46
935.443	50.84
935.613	37.47
935.783	65.76
935.953	27.79
936.123	181.23
936.294	30.5
936.464	14.22
936.634	18.29
936.804	15
936.974	-5.54
937.144	61.69
937.314	16.74
937.484	21.01
937.655	18.49
937.825	52
937.995	13.06
938.165	65.76
938.334	4.92
938.504	36.12
938.674	24.3
938.844	41.16
939.014	94.82
939.184	95.21
939.354	137.25
939.524	128.15
939.694	43.87
939.863	71.57
940.033	120.79
940.203	121.95
940.373	89.98
940.542	118.46
940.712	63.44
940.882	87.85
941.051	104.7
941.221	110.52
941.391	120.2
941.56	88.24
941.73	67.89
941.899	156.43
942.069	72.54
942.238	79.9
942.408	52.59
942.577	112.45
942.747	56.27
942.916	19.65
943.086	42.51
943.255	85.52
943.425	67.12
943.594	76.42
943.763	3.76
943.933	26.82
944.102	-33.63
944.271	63.82
944.441	84.36
944.61	32.24
944.779	53.55
944.948	157.02
945.117	14.81
945.287	29.92
945.456	-11.35
945.625	10.54
945.794	55.49
945.963	44.84
946.132	56.46
946.301	25.85
946.47	76.61
946.639	-9.8
946.808	41.54
946.977	74.48
947.146	84.55
947.315	48.91
947.484	77.39
947.653	31.66
947.822	38.25
947.991	32.05
948.16	113.23
948.329	84.36
948.498	52.39
948.666	58.98
948.835	65.37
949.004	3.37
949.173	7.06
949.341	74.29
949.51	31.27
949.679	98.31
949.847	74.87
950.016	128.73
950.185	83.59
950.353	40.19
950.522	60.53
950.69	95.79
950.859	33.02
951.028	110.71
951.196	58.2
951.365	40.77
951.533	76.8
951.701	87.07
951.87	69.44
952.038	28.17
952.207	65.57
952.375	101.8
952.543	44.45
952.712	45.42
952.88	23.52
953.048	104.9
953.217	75.45
953.385	49.29
953.553	97.73
953.721	29.53
953.89	44.84
954.058	11.71
954.226	42.51
954.394	61.69
954.562	-2.24
954.73	35.34
954.898	62.27
955.067	86.69
955.235	37.28
955.403	131.44
955.571	106.06
955.739	67.12
955.907	39.22
956.075	33.02
956.243	23.91
956.41	69.25
956.578	27.79
956.746	9.96
956.914	34.96
957.082	88.04
957.25	57.04
957.418	38.44
957.585	77.58
957.753	92.5
957.921	43.48
958.089	62.85
958.256	83.59
958.424	83.39
958.592	51.23
958.759	31.47
958.927	63.44
959.095	29.92
959.262	63.05
959.43	48.71
959.597	46.39
959.765	62.08
959.932	53.17
960.1	97.73
960.267	74.48
960.435	40.57
960.602	101.22
960.77	56.27
960.937	32.24
961.104	71.57
961.272	23.14
961.439	40.77
961.606	47.94
961.774	87.07
961.941	34.37
962.108	99.47
962.275	35.92
962.443	115.17
962.61	81.07
962.777	149.07
962.944	113.62
963.111	70.8
963.278	112.07
963.446	89.59
963.613	69.44
963.78	83.78
963.947	88.62
964.114	86.1
964.281	165.35
964.448	91.72
964.615	63.24
964.782	78.35
964.949	100.05
965.116	87.46
965.282	108.77
965.449	59.56
965.616	56.65
965.783	83.2
965.95	70.8
966.117	35.34
966.283	88.04
966.45	83.59
966.617	76.22
966.784	81.07
966.95	107.42
967.117	105.67
967.284	46.97
967.45	90.17
967.617	120.98
967.784	99.09
967.95	139.97
968.117	73.12
968.283	112.65
968.45	154.3
968.616	113.62
968.783	140.74
968.949	101.99
969.116	135.7
969.282	115.94
969.449	131.64
969.615	106.84
969.781	75.84
969.948	79.13
970.114	71.19
970.28	153.53
970.447	85.91
970.613	118.27
970.779	102.96
970.945	118.85
971.112	109.35
971.278	74.87
971.444	119.04
971.61	141.13
971.776	80.68
971.942	127.37
972.108	133.19
972.275	100.05
972.441	91.14
972.607	168.06
972.773	75.45
972.939	103.35
973.105	96.57
973.271	45.81
973.437	94.24
973.602	72.54
973.768	119.24
973.934	75.64
974.1	101.22
974.266	13.64
974.432	110.52
974.598	63.44
974.763	99.47
974.929	64.02
975.095	143.45
975.261	79.32
975.426	62.66
975.592	81.84
975.758	147.33
975.923	30.89
976.089	66.73
976.255	125.82
976.42	85.72
976.586	91.53
976.751	112.07
976.917	162.44
977.082	100.83
977.248	27.01
977.413	44.64
977.579	85.14
977.744	94.82
977.91	31.86
978.075	57.62
978.24	120.59
978.406	56.27
978.571	68.09
978.736	35.73
978.902	98.31
979.067	59.75
979.232	6.86
979.397	113.62
979.563	112.65
979.728	70.41
979.893	76.03
980.058	33.79
980.223	118.85
980.388	75.25
980.554	95.21
980.719	57.62
980.884	100.44
981.049	123.5
981.214	71.77
981.379	112.26
981.544	59.95
981.709	91.34
981.874	66.34
982.039	71.96
982.204	100.25
982.368	86.3
982.533	64.02
982.698	98.12
982.863	127.57
983.028	54.72
983.193	72.54
983.357	92.89
983.522	93.27
983.687	63.63
983.852	63.44
984.016	86.3
984.181	73.32
984.346	86.69
984.51	111.87
984.675	76.61
984.839	95.02
985.004	113.23
985.168	137.84
985.333	81.45
985.498	94.24
985.662	98.31
985.827	82.04
985.991	81.45
986.155	50.46
986.32	98.12
986.484	131.05
986.649	102.19
986.813	39.8
986.977	80.29
987.142	98.12
987.306	38.64
987.47	58.4
987.634	100.25
987.799	77
987.963	73.9
988.127	92.11
988.291	152.75
988.455	86.88
988.62	54.72
988.784	104.9
988.948	129.7
989.112	60.72
989.276	86.69
989.44	88.04
989.604	66.15
989.768	62.08
989.932	169.8
990.096	39.8
990.26	37.67
990.424	31.08
990.588	68.47
990.752	135.7
990.915	83.59
991.079	52.39
991.243	53.55
991.407	114.97
991.571	70.8
991.734	70.02
991.898	122.14
992.062	182.59
992.226	71.77
992.389	69.05
992.553	29.53
992.717	36.12
992.88	59.56
993.044	69.05
993.207	52.2
993.371	89.59
993.535	99.86
993.698	77
993.862	104.9
994.025	113.04
994.189	73.12
994.352	86.3
994.515	77.19
994.679	95.02
994.842	70.41
995.006	88.24
995.169	21.78
995.332	34.96
995.496	64.4
995.659	21.78
995.822	57.04
995.985	52.59
996.149	109.16
996.312	51.81
996.475	131.05
996.638	52.59
996.801	97.73
996.964	142.68
997.128	56.27
997.291	37.09
997.454	74.48
997.617	36.31
997.78	95.21
997.943	29.34
998.106	109.74
998.269	36.51
998.432	62.27
998.595	57.04
998.758	30.11
998.92	46.58
999.083	-13.48
999.246	51.42
999.409	2.6
999.572	-6.51
999.735	18.29
999.897	65.57
1000.06	29.92
1000.223	37.09
1000.386	57.04
1000.548	87.07
1000.711	55.1
1000.874	55.88
1001.036	30.11
1001.199	88.04
1001.361	37.09
1001.524	44.26
1001.687	61.69
1001.849	20.23
1002.012	83.2
1002.174	56.46
1002.337	84.17
1002.499	63.63
1002.661	73.12
1002.824	36.31
1002.986	52.78
1003.149	56.46
1003.311	21.01
1003.473	119.43
1003.636	8.41
1003.798	59.75
1003.96	53.75
1004.123	48.52
1004.285	50.46
1004.447	62.66
1004.609	42.9
1004.771	101.02
1004.933	7.06
1005.096	31.47
1005.258	2.6
1005.42	19.07
1005.582	76.8
1005.744	39.99
1005.906	2.99
1006.068	32.24
1006.23	12.29
1006.392	-14.64
1006.554	6.09
1006.716	61.11
1006.878	55.1
1007.04	7.25
1007.202	40.57
1007.363	61.5
1007.525	53.55
1007.687	58.98
1007.849	61.5
1008.011	-24.91
1008.172	19.46
1008.334	15.97
1008.496	30.31
1008.658	14.03
1008.819	2.99
1008.981	-20.65
1009.143	16.55
1009.304	25.27
1009.466	52
1009.627	78.16
1009.789	106.64
1009.95	21.01
1010.112	12.48
1010.273	49.49
1010.435	13.45
1010.596	13.45
1010.758	37.86
1010.919	19.07
1011.081	12.09
1011.242	13.26
1011.403	44.84
1011.565	20.23
1011.726	43.67
1011.887	-10.38
1012.049	49.68
1012.21	57.24
1012.371	81.84
1012.532	-22.78
1012.693	27.21
1012.855	-4.96
1013.016	30.69
1013.177	73.12
1013.338	30.89
1013.499	93.66
1013.66	53.94
1013.821	61.69
1013.982	32.24
1014.143	13.64
1014.304	24.69
1014.465	58.2
1014.626	50.84
1014.787	36.12
1014.948	101.99
1015.109	-36.54
1015.27	55.88
1015.431	8.99
1015.592	10.74
1015.752	73.9
1015.913	27.4
1016.074	39.41
1016.235	8.61
1016.395	25.85
1016.556	4.15
1016.717	43.09
1016.877	84.94
1017.038	22.94
1017.199	14.81
1017.359	11.71
1017.52	12.87
1017.681	10.35
1017.841	38.06
1018.002	-1.66
1018.162	6.86
1018.323	57.43
1018.483	21.2
1018.644	26.82
1018.804	-10.96
1018.964	-0.5
1019.125	10.74
1019.285	20.62
1019.446	-35.96
1019.606	11.9
1019.766	-16.58
1019.926	59.95
1020.087	48.71
1020.247	-16.39
1020.407	33.41
1020.567	67.89
1020.728	17.32
1020.888	-6.7
1021.048	-15.61
1021.208	-43.71
1021.368	-9.03
1021.528	45.03
1021.688	38.64
1021.848	31.27
1022.008	36.31
1022.168	-4.18
1022.328	6.67
1022.488	29.34
1022.648	-2.24
1022.808	21.01
1022.968	48.13
1023.128	-9.03
1023.288	-0.5
1023.448	19.46
1023.608	46.77
1023.767	35.73
1023.927	-5.34
1024.087	-6.89
1024.247	-29.95
1024.406	7.06
1024.566	-3.41
1024.726	-23.94
1024.885	0.27
1025.045	46.58
1025.205	1.24
1025.364	-3.6
1025.524	27.21
1025.683	0.47
1025.843	24.11
1026.003	4.54
1026.162	75.84
1026.321	26.62
1026.481	24.88
1026.64	12.87
1026.8	44.26
1026.959	14.61
1027.119	27.79
1027.278	-16.58
1027.437	-15.61
1027.597	9.77
1027.756	34.18
1027.915	4.15
1028.074	31.27
1028.234	-14.26
1028.393	16.74
1028.552	8.8
1028.711	-47
1028.87	46.39
1029.03	-8.64
1029.189	11.12
1029.348	-54.94
1029.507	1.24
1029.666	14.03
1029.825	-28.21
1029.984	-11.93
1030.143	23.72
1030.302	4.73
1030.461	-53.01
1030.62	-2.63
1030.779	44.06
1030.938	-27.63
1031.097	-19.68
1031.255	30.5
1031.414	56.46
1031.573	31.86
1031.732	-7.09
1031.891	0.47
1032.049	54.14
1032.208	3.57
1032.367	-23.56
1032.525	14.22
1032.684	-5.54
1032.843	28.76
1033.001	-49.13
1033.16	119.82
1033.319	16.94
1033.477	21.59
1033.636	6.47
1033.794	-13.29
1033.953	30.5
1034.111	36.7
1034.27	-10.77
1034.428	7.83
1034.587	-20.65
1034.745	-17.55
1034.903	9.96
1035.062	37.86
1035.22	-17.16
1035.378	40.77
1035.537	-25.88
1035.695	25.66
1035.853	-0.89
1036.011	13.45
1036.17	7.83
1036.328	-63.66
1036.486	34.96
1036.644	5.89
1036.802	-86.72
1036.96	-22.01
1037.119	-6.51
1037.277	-35.76
1037.435	-37.31
1037.593	-33.83
1037.751	-0.31
1037.909	33.02
1038.067	33.02
