Data from oakcork_FLMT105791__178__17-31-51-057.txt Node

Date: Mon Mar 20 17:31:51 GMT 2023
User: antho
Spectrometer: FLMT10579
Trigger mode: 0
Integration Time (sec): 1.000000E-1
Scans to average: 10
Electric dark correction enabled: true
Nonlinearity correction enabled: false
Boxcar width: 0
XAxis mode: Wavelengths
Number of Pixels in Spectrum: 3648
>>>>>Begin Spectral Data<<<<<
345.248	-137.38
345.464	-137.38
345.681	-137.38
345.898	-155.21
346.114	-140.29
346.331	-30.82
346.548	28.66
346.764	-0.4
346.981	-13.77
347.197	-18.42
347.414	0.57
347.631	13.16
347.847	62.37
348.064	17.23
348.28	5.8
348.497	-61.24
348.713	-3.12
348.93	36.21
349.146	20.13
349.363	2.7
349.579	30.4
349.796	6.96
350.012	-7.96
350.229	22.26
350.445	17.23
350.661	-8.73
350.878	-26.56
351.094	30.21
351.311	16.45
351.527	16.65
351.743	-8.93
351.96	38.15
352.176	23.04
352.392	44.74
352.609	50.55
352.825	-4.67
353.041	10.45
353.257	-11.25
353.474	33.5
353.69	31.95
353.906	20.13
354.122	-0.02
354.339	55.01
354.555	-2.34
354.771	2.5
354.987	79.03
355.203	33.5
355.42	3.86
355.636	5.41
355.852	21.88
356.068	5.41
356.284	-13.38
356.5	65.47
356.716	10.45
356.932	17.61
357.148	28.85
357.364	3.86
357.58	57.53
357.796	80.39
358.012	52.49
358.228	32.73
358.444	-45.16
358.66	50.75
358.876	21.1
359.092	-18.03
359.308	34.47
359.524	50.16
359.74	-20.17
359.956	7.93
360.172	47.45
360.388	37.96
360.604	-13.97
360.819	75.93
361.035	18.78
361.251	49.78
361.467	-19
361.683	55.4
361.898	56.75
362.114	53.46
362.33	13.16
362.546	77.48
362.762	14.51
362.977	7.73
363.193	1.53
363.409	77.29
363.624	3.08
363.84	2.7
364.056	5.41
364.271	43.38
364.487	31.95
364.703	-6.8
364.918	-27.92
365.134	7.73
365.35	27.3
365.565	99.38
365.781	21.49
365.996	40.09
366.212	83.3
366.427	16.45
366.643	-7.38
366.858	25.95
367.074	-3.5
367.289	66.05
367.505	98.6
367.72	-6.22
367.936	-5.83
368.151	45.71
368.367	59.66
368.582	26.72
368.798	17.23
369.013	79.42
369.228	24.98
369.444	46.29
369.659	33.7
369.874	31.18
370.09	61.98
370.305	-21.13
370.52	-7.57
370.736	43.77
370.951	-0.98
371.166	66.25
371.381	87.75
371.597	40.67
371.812	-15.71
372.027	4.83
372.242	26.53
372.458	82.13
372.673	12.19
372.888	6.77
373.103	36.8
373.318	100.34
373.533	60.24
373.749	41.45
373.964	-33.15
374.179	39.9
374.394	28.66
374.609	80.2
374.824	-9.12
375.039	68.76
375.254	-9.32
375.469	56.95
375.684	23.23
375.899	45.13
376.114	2.89
376.329	48.61
376.544	96.28
376.759	61.21
376.974	18.78
377.189	1.34
377.404	22.46
377.619	46.48
377.834	-25.59
378.049	37.76
378.264	6.96
378.478	49.97
378.693	4.05
378.908	39.31
379.123	6.18
379.338	44.74
379.553	32.73
379.767	38.93
379.982	44.55
380.197	40.86
380.412	53.65
380.626	49
380.841	84.65
381.056	62.56
381.271	68.18
381.485	-1.76
381.7	-8.93
381.915	41.06
382.129	23.62
382.344	40.09
382.559	-5.25
382.773	39.7
382.988	-5.44
383.202	44.55
383.417	-13.58
383.632	96.28
383.846	28.27
384.061	38.73
384.275	39.12
384.49	58.3
384.704	55.98
384.919	33.31
385.133	34.08
385.348	41.25
385.562	-15.52
385.777	80.2
385.991	34.66
386.206	32.15
386.42	10.64
386.634	68.96
386.849	52.49
387.063	31.56
387.277	2.12
387.492	21.49
387.706	8.7
387.92	12.96
388.135	31.56
388.349	45.13
388.563	49.97
388.778	38.35
388.992	53.65
389.206	66.05
389.42	114.49
389.635	29.82
389.849	58.69
390.063	67.8
390.277	43.77
390.491	88.72
390.706	50.36
390.92	76.32
391.134	52.1
391.348	72.64
391.562	-2.15
391.776	45.32
391.99	4.44
392.205	38.35
392.419	20.52
392.633	42.61
392.847	67.41
393.061	32.92
393.275	72.64
393.489	59.85
393.703	39.9
393.917	47.84
394.131	33.11
394.345	49.78
394.559	73.22
394.773	14.13
394.986	42.61
395.2	28.46
395.414	58.11
395.628	43.38
395.842	45.13
396.056	17.61
396.27	4.83
396.484	85.04
396.697	55.78
396.911	72.64
397.125	61.21
397.339	93.18
397.553	65.47
397.766	85.23
397.98	82.33
398.194	88.14
398.408	24.4
398.621	83.68
398.835	60.82
399.049	75.74
399.262	100.54
399.476	76.32
399.69	98.21
399.903	106.74
400.117	32.73
400.331	94.15
400.544	44.55
400.758	181.14
400.971	61.4
401.185	92.98
401.398	37.38
401.612	113.13
401.826	99.38
402.039	72.64
402.253	45.51
402.466	87.56
402.68	72.06
402.893	91.63
403.106	68.57
403.32	59.46
403.533	86.59
403.747	80.39
403.96	83.1
404.174	80.2
404.387	46.48
404.6	47.65
404.814	83.1
405.027	75.74
405.24	76.9
405.454	57.72
405.667	99.38
405.88	22.46
406.094	85.62
406.307	111.78
406.52	93.95
406.733	29.82
406.947	20.71
407.16	123.4
407.373	86.2
407.586	67.8
407.799	37.96
408.012	119.91
408.226	66.63
408.439	103.64
408.652	47.26
408.865	83.1
409.078	123.01
409.291	109.06
409.504	41.25
409.717	107.9
409.93	108.68
410.143	80
410.357	30.6
410.57	59.46
410.783	56.17
410.996	88.72
411.209	76.51
411.421	120.11
411.634	63.92
411.847	50.36
412.06	80.39
412.273	66.83
412.486	92.01
412.699	177.84
412.912	60.43
413.125	81.94
413.338	96.66
413.55	124.95
413.763	82.13
413.976	102.86
414.189	62.37
414.402	75.55
414.615	146.84
414.827	45.71
415.04	117.59
415.253	101.51
415.466	115.26
415.678	142.19
415.891	106.16
416.104	80.97
416.316	96.08
416.529	68.38
416.742	107.13
416.954	139.68
417.167	86.59
417.38	85.43
417.592	116.43
417.805	58.11
418.017	67.21
418.23	79.23
418.442	75.74
418.655	66.25
418.868	101.7
419.08	129.41
419.293	132.31
419.505	105.77
419.718	95.5
419.93	129.41
420.142	76.9
420.355	147.04
420.567	121.27
420.78	105.58
420.992	92.21
421.205	133.09
421.417	31.95
421.629	88.91
421.842	84.07
422.054	60.05
422.266	112.36
422.479	120.69
422.691	79.42
422.903	135.61
423.115	72.64
423.328	71.86
423.54	96.86
423.752	107.9
423.964	88.91
424.177	111.39
424.389	86.98
424.601	177.26
424.813	121.46
425.025	132.51
425.238	118.56
425.45	87.95
425.662	94.34
425.874	381.86
426.086	75.55
426.298	116.81
426.51	119.91
426.722	108.68
426.934	80.78
427.146	134.64
427.358	44.55
427.57	156.53
427.782	110.42
427.994	93.95
428.206	77.87
428.418	70.51
428.63	128.24
428.842	133.86
429.054	118.17
429.266	154.98
429.478	85.23
429.69	97.83
429.902	67.21
430.114	132.31
430.325	103.64
430.537	112.16
430.749	79.42
430.961	37.96
431.173	98.02
431.384	118.36
431.596	41.45
431.808	85.62
432.02	110.61
432.231	129.99
432.443	166.8
432.655	131.93
432.867	68.18
433.078	99.96
433.29	191.99
433.502	142.78
433.713	159.63
433.925	112.74
434.136	132.7
434.348	83.49
434.56	78.45
434.771	218.72
434.983	66.25
435.194	95.31
435.406	129.99
435.617	157.11
435.829	200.9
436.04	159.83
436.252	176.68
436.463	189.86
436.675	173.58
436.886	148.59
437.098	144.33
437.309	183.66
437.521	161.76
437.732	152.46
437.943	146.84
438.155	134.25
438.366	85.62
438.578	186.95
438.789	138.32
439	169.13
439.211	143.55
439.423	163.12
439.634	177.26
439.845	156.73
440.057	158.86
440.268	165.64
440.479	106.74
440.69	161.57
440.902	161.38
441.113	144.33
441.324	100.15
441.535	145.49
441.746	199.35
441.957	126.69
442.168	108.48
442.38	135.99
442.591	172.42
442.802	122.43
443.013	136.58
443.224	188.11
443.435	139.68
443.646	151.3
443.857	148.78
444.068	153.82
444.279	85.23
444.49	212.72
444.701	143.36
444.912	232.48
445.123	173.58
445.334	172.81
445.545	170.87
445.756	156.92
445.967	132.7
446.178	187.53
446.388	192.57
446.599	191.21
446.81	157.5
447.021	152.85
447.232	201.87
447.443	220.08
447.653	146.65
447.864	207.87
448.075	188.89
448.286	220.47
448.496	195.86
448.707	217.17
448.918	155.18
449.129	252.63
449.339	132.89
449.55	196.06
449.761	188.69
449.971	235.19
450.182	160.02
450.393	199.16
450.603	160.21
450.814	222.02
451.024	213.88
451.235	228.22
451.446	257.09
451.656	233.84
451.867	175.33
452.077	210.59
452.288	223.96
452.498	232.67
452.709	222.21
452.919	203.22
453.13	161.96
453.34	226.28
453.55	152.85
453.761	222.99
453.971	211.36
454.182	219.11
454.392	204.19
454.602	246.04
454.813	191.79
455.023	237.91
455.233	187.34
455.444	200.32
455.654	160.41
455.864	183.07
456.075	197.02
456.285	179.98
456.495	210.97
456.705	224.73
456.916	259.41
457.126	268.52
457.336	224.34
457.546	131.54
457.756	195.09
457.967	224.54
458.177	191.41
458.387	190.05
458.597	184.62
458.807	200.71
459.017	197.41
459.227	179.59
459.437	195.09
459.647	239.84
459.857	242.75
460.068	172.81
460.278	230.54
460.488	239.07
460.698	283.44
460.908	209.42
461.117	168.16
461.327	193.15
461.537	243.33
461.747	188.89
461.957	197.22
462.167	292.93
462.377	225.31
462.587	230.35
462.797	266.77
463.007	242.17
463.216	256.51
463.426	258.44
463.636	246.04
463.846	156.14
464.056	190.82
464.265	240.81
464.475	219.69
464.685	218.72
464.895	229.38
465.104	207.49
465.314	245.07
465.524	205.94
465.733	180.17
465.943	288.28
466.153	283.44
466.362	264.06
466.572	224.15
466.782	207.29
466.991	217.76
467.201	281.89
467.41	168.35
467.62	233.06
467.829	222.21
468.039	242.36
468.249	223.96
468.458	236.36
468.668	248.95
468.877	251.27
469.086	284.02
469.296	270.07
469.505	218.72
469.715	289.25
469.924	257.28
470.134	281.5
470.343	272.97
470.552	241.59
470.762	247.21
470.971	213.3
471.18	267.55
471.39	258.25
471.599	217.95
471.808	287.12
472.018	239.65
472.227	303.2
472.436	275.1
472.645	253.79
472.855	248.17
473.064	313.27
473.273	254.96
473.482	291.96
473.691	310.37
473.901	302.42
474.11	280.92
474.319	348.92
474.528	289.83
474.737	316.57
474.946	293.32
475.155	312.89
475.364	332.65
475.573	296.03
475.783	285.18
475.992	313.27
476.201	321.6
476.41	302.81
476.619	259.61
476.828	307.65
477.037	283.63
477.245	296.61
477.454	337.1
477.663	269.1
477.872	287.89
478.081	375.08
478.29	251.27
478.499	365.97
478.708	336.91
478.917	358.22
479.125	286.15
479.334	342.92
479.543	307.07
479.752	322.96
479.961	315.99
480.169	337.88
480.378	299.32
480.587	445.21
480.796	353.38
481.004	367.91
481.213	373.33
481.422	332.07
481.63	334.59
481.839	385.73
482.048	402.59
482.256	346.99
482.465	355.9
482.674	363.07
482.882	375.85
483.091	433.01
483.299	365.2
483.508	395.23
483.716	400.65
483.925	370.23
484.134	367.72
484.342	370.43
484.551	387.67
484.759	410.53
484.967	395.23
485.176	410.53
485.384	414.99
485.593	409.18
485.801	395.81
486.01	373.53
486.218	358.03
486.426	329.35
486.635	360.74
486.843	348.73
487.051	369.27
487.26	355.7
487.468	384.57
487.676	423.13
487.885	359
488.093	367.33
488.301	383.8
488.509	407.63
488.717	416.54
488.926	410.34
489.134	416.54
489.342	390.38
489.55	385.54
489.758	402.98
489.967	374.88
490.175	475.83
490.383	394.84
490.591	473.11
490.799	384.38
491.007	436.5
491.215	420.03
491.423	427.39
491.631	421.97
491.839	444.83
492.047	449.28
492.255	400.27
492.463	379.92
492.671	405.5
492.879	439.98
493.087	455.87
493.295	466.14
493.503	434.95
493.711	464.2
493.919	479.12
494.127	492.1
494.334	490.55
494.542	433.2
494.75	441.34
494.958	423.9
495.166	500.05
495.374	459.94
495.581	453.55
495.789	493.26
495.997	497.91
496.205	471.37
496.412	456.84
496.62	454.32
496.828	464.98
497.035	441.92
497.243	482.41
497.451	446.18
497.658	520
497.866	467.88
498.074	530.85
498.281	458.2
498.489	562.04
498.696	513.61
498.904	454.51
499.112	469.43
499.319	556.43
499.527	478.54
499.734	530.66
499.942	443.28
500.149	473.31
500.357	480.28
500.564	437.85
500.771	483.19
500.979	497.14
501.186	452
501.394	469.82
501.601	518.65
501.808	515.16
502.016	498.5
502.223	474.47
502.43	474.08
502.638	495.01
502.845	449.28
503.052	551.39
503.26	497.33
503.467	568.63
503.674	513.8
503.881	526.01
504.089	572.7
504.296	562.63
504.503	485.9
504.71	525.23
504.917	483.96
505.125	525.43
505.332	524.85
505.539	527.56
505.746	617.07
505.953	542.67
506.16	537.63
506.367	583.16
506.574	591.3
506.781	595.95
506.988	516.51
507.195	575.03
507.402	535.11
507.609	570.18
507.816	553.33
508.023	518.84
508.23	513.03
508.437	528.53
508.644	573.28
508.851	600.6
509.058	603.12
509.265	587.23
509.472	588.98
509.679	662.21
509.885	548.29
510.092	567.47
510.299	579.09
510.506	602.54
510.713	580.45
510.92	588.01
511.126	628.69
511.333	629.47
511.54	594.01
511.746	631.6
511.953	647.1
512.16	632.57
512.367	584.71
512.573	617.26
512.78	614.36
512.987	616.1
513.193	620.94
513.4	562.24
513.606	583.74
513.813	621.14
514.02	609.51
514.226	682.56
514.433	627.92
514.639	600.02
514.846	609.71
515.052	587.43
515.259	617.07
515.465	631.99
515.672	624.82
515.878	717.04
516.085	640.71
516.291	704.64
516.497	634.89
516.704	621.72
516.91	604.48
517.117	593.63
517.323	564.95
517.529	603.7
517.736	614.36
517.942	601.96
518.148	591.88
518.354	640.71
518.561	624.24
518.767	652.14
518.973	659.31
519.179	672.87
519.386	616.88
519.592	624.04
519.798	644.77
520.004	701.16
520.21	690.69
520.417	719.17
520.623	743
520.829	728.86
521.035	702.9
521.241	734.29
521.447	747.27
521.653	826.7
521.859	735.64
522.065	754.82
522.271	839.88
522.477	793.38
522.683	813.14
522.889	759.47
523.095	800.74
523.301	781.37
523.507	765.67
523.713	782.14
523.919	747.46
524.125	814.11
524.331	781.37
524.537	841.04
524.742	819.92
524.948	837.36
525.154	848.6
525.36	932.49
525.566	868.36
525.772	888.7
525.977	756.18
526.183	873.59
526.389	866.23
526.595	839.49
526.8	800.93
527.006	799.77
527.212	784.47
527.417	772.45
527.623	748.62
527.829	834.26
528.034	827.67
528.24	840.46
528.446	841.82
528.651	897.03
528.857	898.97
529.062	972.4
529.268	891.22
529.473	922.8
529.679	895.68
529.884	947.21
530.09	937.33
530.295	996.43
530.501	951.67
530.706	950.31
530.912	886.18
531.117	959.03
531.323	946.05
531.528	980.93
531.733	951.28
531.939	920.86
532.144	966.01
532.35	971.24
532.555	996.04
532.76	981.89
532.966	1015.41
533.171	988.48
533.376	915.63
533.581	912.15
533.787	962.91
533.992	986.74
534.197	1024.13
534.402	981.7
534.607	975.89
534.813	1077.61
535.018	991
535.223	977.44
535.428	1004.18
535.633	1023.36
535.838	1046.61
536.043	1016.19
536.249	1096.21
536.454	1026.84
536.659	1009.21
536.864	999.91
537.069	1015.22
537.274	1030.72
537.479	1018.32
537.684	1026.65
537.889	1002.82
538.094	1100.66
538.299	1048.93
538.504	1059.59
538.708	1029.17
538.913	1085.55
539.118	1030.33
539.323	1050.87
539.528	1052.03
539.733	1051.64
539.938	1077.8
540.142	1084
540.347	1046.8
540.552	984.61
540.757	1030.33
540.962	1049.71
541.166	1039.63
541.371	982.48
541.576	1043.89
541.781	951.86
541.985	1054.55
542.19	1054.55
542.395	1104.34
542.599	1129.72
542.804	1072.76
543.008	1143.67
543.213	1021.23
543.418	1004.56
543.622	1068.5
543.827	1040.02
544.031	1104.92
544.236	1117.13
544.44	1101.82
544.645	1166.54
544.849	1083.61
545.054	1156.46
545.258	1190.95
545.463	1146.77
545.667	1098.92
545.872	1096.4
546.076	1119.07
546.281	1123.52
546.485	1072.18
546.689	1112.67
546.894	1144.06
547.098	1105.51
547.302	1078.38
547.507	1138.64
547.711	1131.08
547.915	1153.55
548.119	1081.48
548.324	1092.14
548.528	1203.15
548.732	1132.44
548.936	1148.71
549.141	1162.47
549.345	1132.82
549.549	1111.71
549.753	1141.16
549.957	1202.38
550.161	1223.11
550.366	1165.57
550.57	1106.47
550.774	1117.32
550.978	1126.62
551.182	1133.21
551.386	1124.49
551.59	1146.97
551.794	1139.41
551.998	1133.41
552.202	1127.59
552.406	1117.52
552.61	1162.27
552.814	1151.04
553.018	1203.15
553.222	1125.85
553.426	1145.8
553.63	1218.65
553.833	1127.98
554.037	1113.45
554.241	1136.12
554.445	1148.71
554.649	1143.29
554.853	1129.53
555.056	1169.25
555.26	1196.57
555.464	1165.76
555.668	1172.93
555.871	1172.35
556.075	1188.62
556.279	1144.25
556.483	1096.98
556.686	1134.57
556.89	1116.94
557.094	1137.86
557.297	1080.51
557.501	1150.07
557.704	1081.87
557.908	1128.17
558.112	1128.37
558.315	1169.64
558.519	1146
558.722	1114.03
558.926	1095.62
559.129	1034.59
559.333	1033.04
559.536	1040.79
559.74	1045.64
559.943	1043.7
560.147	1049.13
560.35	1079.74
560.553	1043.12
560.757	1045.44
560.96	1162.27
561.164	1051.06
561.367	1128.56
561.57	1068.11
561.774	1082.06
561.977	1067.72
562.18	1018.9
562.384	1133.41
562.587	1075.67
562.79	1032.46
562.993	1074.89
563.197	1069.86
563.4	1103.57
563.603	1078.19
563.806	1114.81
564.009	1016.58
564.212	1056.87
564.416	988.29
564.619	1069.27
564.822	987.71
565.025	1085.16
565.228	1024.71
565.431	1034.59
565.634	953.8
565.837	1001.08
566.04	977.24
566.243	1014.06
566.446	914.86
566.649	1018.32
566.852	931.71
567.055	977.05
567.258	1030.72
567.461	1046.61
567.664	1048.16
567.867	918.54
568.07	975.5
568.273	998.17
568.475	1031.69
568.678	1002.43
568.881	948.38
569.084	945.47
569.287	880.18
569.489	926.87
569.692	945.47
569.895	982.28
570.098	922.22
570.3	878.82
570.503	824.57
570.706	890.64
570.909	895.29
571.111	851.7
571.314	816.24
571.516	887.93
571.719	874.17
571.922	836.78
572.124	875.14
572.327	856.54
572.529	830.58
572.732	843.95
572.935	870.3
573.137	893.35
573.34	850.34
573.542	873.59
573.745	880.57
573.947	896.06
574.15	849.76
574.352	834.84
574.554	889.67
574.757	812.56
574.959	809.07
575.162	820.89
575.364	816.24
575.566	901.68
575.769	790.86
575.971	847.05
576.173	737.39
576.376	861
576.578	854.41
576.78	891.8
576.982	745.52
577.185	783.69
577.387	769.35
577.589	782.34
577.791	805
577.993	821.67
578.196	755.21
578.398	795.51
578.6	819.34
578.802	742.81
579.004	760.05
579.206	796.28
579.408	772.07
579.61	774.39
579.812	807.72
580.014	758.31
580.216	786.4
580.418	774
580.62	765.29
580.822	763.35
581.024	776.91
581.226	802.68
581.428	760.64
581.63	837.17
581.832	724.21
582.034	799
582.236	788.92
582.438	822.63
582.64	825.35
582.841	837.17
583.043	878.05
583.245	789.31
583.447	789.89
583.649	782.14
583.85	751.92
584.052	816.82
584.254	749.2
584.456	848.4
584.657	741.26
584.859	814.5
585.061	778.85
585.262	766.25
585.464	744.17
585.666	814.69
585.867	786.99
586.069	817.02
586.27	800.35
586.472	787.37
586.674	759.28
586.875	747.46
587.077	755.6
587.278	789.89
587.48	747.46
587.681	866.42
587.883	768.39
588.084	668.61
588.285	724.02
588.487	715.88
588.688	729.64
588.89	704.06
589.091	670.74
589.292	698.44
589.494	671.71
589.695	664.73
589.896	613.58
590.098	589.94
590.299	708.9
590.5	666.47
590.702	654.85
590.903	649.42
591.104	734.67
591.305	667.83
591.507	739.32
591.708	706
591.909	688.95
592.11	743.97
592.311	728.67
592.512	688.37
592.714	650.78
592.915	645.36
593.116	696.89
593.317	699.61
593.518	646.91
593.719	667.06
593.92	669.77
594.121	730.22
594.322	694.76
594.523	694.37
594.724	636.25
594.925	674.03
595.126	700.38
595.327	691.47
595.528	654.85
595.729	707.35
595.929	689.34
596.13	680.04
596.331	705.81
596.532	699.41
596.733	741.45
596.934	711.23
597.135	711.62
597.335	711.04
597.536	673.06
597.737	690.11
597.938	672.29
598.138	719.95
598.339	685.85
598.54	680.81
598.74	665.89
598.941	722.85
599.142	738.35
599.342	705.42
599.543	650.78
599.744	655.82
599.944	713.17
600.145	676.94
600.345	713.17
600.546	758.31
600.746	742.42
600.947	767.61
601.147	695.73
601.348	727.31
601.548	667.44
601.749	697.28
601.949	646.52
602.15	652.33
602.35	693.21
602.551	721.11
602.751	669.96
602.951	668.8
603.152	625.59
603.352	681.39
603.552	684.88
603.753	728.09
603.953	697.86
604.153	681.97
604.354	665.7
604.554	697.67
604.754	688.95
604.954	631.41
605.155	715.69
605.355	642.64
605.555	706.97
605.755	705.61
605.955	696.51
606.155	712.59
606.356	685.27
606.556	720.72
606.756	642.26
606.956	619.78
607.156	698.06
607.356	656.79
607.556	696.12
607.756	675.97
607.956	677.91
608.156	672.87
608.356	622.88
608.556	679.84
608.756	655.62
608.956	663.96
609.156	674.22
609.356	639.93
609.556	627.92
609.755	653.88
609.955	623.85
610.155	659.5
610.355	635.86
610.555	633.73
610.755	631.02
610.954	604.67
611.154	640.71
611.354	672.29
611.554	606.99
611.753	610.87
611.953	576.19
612.153	670.74
612.352	656.59
612.552	597.89
612.752	543.25
612.951	587.43
613.151	634.12
613.351	581.23
613.55	618.62
613.75	626.37
613.949	607.19
614.149	636.06
614.348	604.28
614.548	579.09
614.747	548.48
614.947	563.21
615.146	542.28
615.346	620.94
615.545	604.86
615.745	627.14
615.944	608.74
616.144	605.25
616.343	651.36
616.542	583.36
616.742	594.01
616.941	580.06
617.14	556.04
617.34	611.64
617.539	574.06
617.738	538.99
617.938	633.73
618.137	577.74
618.336	566.89
618.535	590.91
618.734	602.93
618.934	604.28
619.133	582.39
619.332	619.2
619.531	605.64
619.73	583.16
619.929	612.81
620.128	600.99
620.328	616.29
620.527	552.94
620.726	552.74
620.925	594.59
621.124	555.65
621.323	577.35
621.522	559.72
621.721	522.52
621.92	551.19
622.119	575.8
622.318	537.83
622.517	558.94
622.715	551.78
622.914	518.26
623.113	544.8
623.312	498.5
623.511	561.08
623.71	523.1
623.909	533.37
624.107	618.81
624.306	510.51
624.505	524.26
624.704	531.43
624.902	526.4
625.101	588.01
625.3	538.21
625.499	504.11
625.697	531.05
625.896	503.34
626.095	572.12
626.293	476.02
626.492	512.06
626.69	532.59
626.889	491.33
627.088	580.45
627.286	512.83
627.485	476.41
627.683	490.36
627.882	540.34
628.08	454.13
628.279	513.41
628.477	563.4
628.676	471.76
628.874	543.06
629.073	473.31
629.271	449.86
629.469	514.38
629.668	509.73
629.866	489.58
630.065	473.11
630.263	493.26
630.461	450.06
630.66	500.63
630.858	503.15
631.056	517.68
631.254	550.81
631.453	484.55
631.651	501.01
631.849	527.56
632.047	515.16
632.245	505.28
632.444	541.89
632.642	520.58
632.84	549.64
633.038	489.2
633.236	464.01
633.434	475.63
633.632	459.75
633.83	476.21
634.028	528.91
634.227	488.42
634.425	560.49
634.623	499.66
634.821	512.25
635.019	501.79
635.216	478.35
635.414	525.62
635.612	531.05
635.81	509.15
636.008	561.46
636.206	494.43
636.404	537.05
636.602	492.49
636.8	487.06
636.997	502.18
637.195	531.43
637.393	505.66
637.591	542.86
637.789	482.03
637.986	459.55
638.184	519.03
638.382	533.76
638.58	537.83
638.777	585.68
638.975	529.88
639.173	515.16
639.37	493.46
639.568	533.18
639.765	534.14
639.963	492.3
640.161	560.11
640.358	522.52
640.556	468.66
640.753	465.36
640.951	432.43
641.148	507.99
641.346	498.69
641.543	502.37
641.741	489
641.938	470.79
642.136	474.86
642.333	455.29
642.531	522.13
642.728	562.82
642.925	475.83
643.123	469.24
643.32	484.35
643.517	462.46
643.715	515.35
643.912	477.96
644.109	502.18
644.306	452.19
644.504	443.08
644.701	502.18
644.898	493.26
645.095	466.72
645.293	499.27
645.49	493.85
645.687	490.16
645.884	512.83
646.081	442.12
646.278	448.7
646.475	459.94
646.672	442.12
646.87	486.48
647.067	451.41
647.264	470.79
647.461	429.52
647.658	412.86
647.855	473.7
648.052	453.74
648.249	369.07
648.446	414.8
648.642	417.7
648.839	418.09
649.036	440.57
649.233	380.12
649.43	400.65
649.627	363.65
649.824	426.03
650.021	417.12
650.217	420.42
650.414	384.57
650.611	440.57
650.808	421.77
651.004	430.88
651.201	446.57
651.398	494.81
651.595	457.23
651.791	438.63
651.988	463.62
652.185	381.08
652.381	451.22
652.578	361.13
652.775	417.32
652.971	405.3
653.168	430.68
653.364	461.68
653.561	407.24
653.757	387.87
653.954	421.38
654.15	395.42
654.347	443.86
654.543	397.75
654.74	373.14
654.936	393.1
655.133	400.85
655.329	436.88
655.525	393.48
655.722	401.23
655.918	380.5
656.115	410.92
656.311	379.15
656.507	352.02
656.704	322.19
656.9	355.9
657.096	333.42
657.292	333.42
657.489	376.82
657.685	380.7
657.881	375.47
658.077	334.59
658.273	356.09
658.47	444.25
658.666	363.26
658.862	414.6
659.058	374.5
659.254	421.19
659.45	387.48
659.646	391.16
659.842	365.39
660.038	412.28
660.234	344.66
660.43	391.35
660.626	427
660.822	423.71
661.018	401.04
661.214	380.12
661.41	362.68
661.606	416.15
661.802	425.07
661.998	388.25
662.194	359
662.39	411.12
662.586	419.45
662.781	403.95
662.977	371.59
663.173	398.72
663.369	397.94
663.564	388.06
663.76	413.44
663.956	392.13
664.152	411.12
664.347	339.04
664.543	377.79
664.739	371.2
664.934	320.83
665.13	335.17
665.326	414.99
665.521	372.37
665.717	338.07
665.912	336.33
666.108	272.78
666.304	333.62
666.499	374.11
666.695	283.63
666.89	354.35
667.086	397.94
667.281	368.49
667.477	396.2
667.672	382.25
667.867	358.61
668.063	354.15
668.258	328.97
668.454	352.8
668.649	430.1
668.844	344.85
669.04	364.62
669.235	332.84
669.43	318.5
669.626	299.9
669.821	318.5
670.016	307.85
670.211	339.43
670.407	332.84
670.602	364.81
670.797	321.41
670.992	375.08
671.187	312.11
671.382	390
671.578	311.92
671.773	359.58
671.968	311.72
672.163	308.62
672.358	375.27
672.553	368.68
672.748	305.72
672.943	381.28
673.138	329.74
673.333	348.54
673.528	322.77
673.723	347.95
673.918	307.65
674.113	307.27
674.308	394.26
674.503	346.79
674.698	359.58
674.892	334
675.087	365.58
675.282	362.68
675.477	356.48
675.672	365.78
675.867	327.03
676.061	287.7
676.256	303.78
676.451	321.02
676.646	350.47
676.84	304.94
677.035	293.51
677.23	286.54
677.424	353.19
677.619	362.87
677.814	367.33
678.008	377.4
678.203	286.15
678.397	303.78
678.592	346.6
678.787	361.13
678.981	327.42
679.176	336.52
679.37	331.1
679.565	298.35
679.759	315.02
679.954	351.64
680.148	416.54
680.342	369.46
680.537	349.5
680.731	328.39
680.926	346.4
681.12	348.73
681.314	302.23
681.509	337.49
681.703	313.27
681.897	359.19
682.092	301.65
682.286	307.07
682.48	387.09
682.674	343.69
682.869	326.84
683.063	315.6
683.257	391.74
683.451	319.67
683.645	362.1
683.839	338.27
684.034	326.84
684.228	338.27
684.422	300.68
684.616	315.6
684.81	354.74
685.004	317.54
685.198	327.22
685.392	365
685.586	310.17
685.78	320.44
685.974	353.57
686.168	346.4
686.362	406.66
686.556	311.53
686.75	300.29
686.944	291.19
687.138	316.57
687.331	281.11
687.525	294.09
687.719	232.67
687.913	320.44
688.107	287.5
688.301	274.91
688.494	323.74
688.688	265.42
688.882	271.62
689.076	249.34
689.269	291.96
689.463	317.34
689.657	291.96
689.85	318.5
690.044	295.45
690.238	300.49
690.431	296.22
690.625	289.64
690.818	312.11
691.012	323.93
691.205	311.92
691.399	293.32
691.593	336.14
691.786	372.17
691.98	380.31
692.173	390.38
692.366	356.87
692.56	352.99
692.753	398.13
692.947	315.79
693.14	397.75
693.333	412.67
693.527	338.46
693.72	391.74
693.914	344.47
694.107	364.42
694.3	402.4
694.493	375.85
694.687	398.13
694.88	373.14
695.073	448.7
695.266	427.2
695.46	379.92
695.653	469.82
695.846	447.35
696.039	367.13
696.232	433.01
696.425	440.18
696.618	447.73
696.812	419.83
697.005	479.31
697.198	543.25
697.391	474.47
697.584	513.61
697.777	540.73
697.97	552.74
698.163	547.51
698.356	505.66
698.549	579.87
698.742	569.99
698.935	497.53
699.127	569.02
699.32	534.34
699.513	513.03
699.706	550.81
699.899	569.79
700.092	543.64
700.285	585.1
700.477	553.33
700.67	600.79
700.863	617.26
701.056	657.17
701.248	651.75
701.441	647.29
701.634	634.7
701.826	697.67
702.019	639.54
702.212	663.76
702.404	628.69
702.597	617.46
702.79	647.49
702.982	697.86
703.175	715.69
703.367	734.29
703.56	723.44
703.752	781.17
703.945	749.79
704.137	731.77
704.33	780.79
704.522	765.87
704.715	811.59
704.907	806.55
705.1	811.78
705.292	862.16
705.484	830.58
705.677	867.78
705.869	854.8
706.061	880.18
706.254	903.23
706.446	893.16
706.638	896.65
706.831	944.7
707.023	904.01
707.215	996.04
707.407	930.94
707.599	967.56
707.792	998.17
707.984	1028.01
708.176	1026.46
708.368	984.8
708.56	1002.43
708.752	1013.09
708.944	977.24
709.136	1050.29
709.329	1043.7
709.521	1144.84
709.713	1087.29
709.905	1091.36
710.097	1123.33
710.289	1111.32
710.481	1148.71
710.672	1171.77
710.864	1169.64
711.056	1229.12
711.248	1215.17
711.44	1203.74
711.632	1187.46
711.824	1213.62
712.016	1292.08
712.207	1280.07
712.399	1263.22
712.591	1367.65
712.783	1320.18
712.975	1347.88
713.166	1297.12
713.358	1328.12
713.55	1376.36
713.741	1378.88
713.933	1386.63
714.125	1351.95
714.316	1373.07
714.508	1407.75
714.7	1432.94
714.891	1427.51
715.083	1499.78
715.274	1434.29
715.466	1474.79
715.657	1515.47
715.849	1403.68
716.04	1456.58
716.232	1408.14
716.423	1485.64
716.615	1412.79
716.806	1416.28
716.998	1380.43
717.189	1349.43
717.381	1285.69
717.572	1287.43
717.763	1283.17
717.955	1287.63
718.146	1239.97
718.337	1214.39
718.528	1205.87
718.72	1125.46
718.911	1234.93
719.102	1199.09
719.293	1225.44
719.485	1242.1
719.676	1222.53
719.867	1184.36
720.058	1186.49
720.249	1229.89
720.44	1251.98
720.632	1313.01
720.823	1327.15
721.014	1431
721.205	1437.78
721.396	1491.64
721.587	1591.04
721.778	1568.95
721.969	1660.01
722.16	1673.57
722.351	1672.6
722.542	1792.73
722.733	1828.18
722.924	1720.27
723.115	1785.56
723.305	1793.89
723.496	1784.4
723.687	1684.62
723.878	1700.89
724.069	1697.21
724.26	1726.47
724.45	1656.91
724.641	1686.94
724.832	1690.43
725.023	1711.93
725.213	1669.31
725.404	1694.11
725.595	1674.15
725.785	1712.32
725.976	1760.18
726.167	1748.17
726.357	1756.88
726.548	1871.78
726.739	1736.54
726.929	1857.24
727.12	1875.84
727.31	1906.26
727.501	1861.31
727.691	1897.74
727.882	1915.56
728.072	1959.16
728.263	1965.36
728.453	1971.56
728.644	2003.14
728.834	1999.26
729.024	1982.02
729.215	1953.73
729.405	2011.66
729.596	2083.35
729.786	2088.77
729.976	2104.47
730.167	2109.31
730.357	2080.83
730.547	2136.24
730.737	2135.85
730.928	2164.14
731.118	2172.28
731.308	2139.15
731.498	2185.07
731.688	2269.35
731.879	2274.77
732.069	2330.38
732.259	2363.89
732.449	2365.44
732.639	2475.88
732.829	2484.4
733.019	2525.48
733.209	2566.36
733.399	2613.44
733.589	2631.46
733.779	2658.78
733.969	2712.25
734.159	2777.35
734.349	2779.87
734.539	2848.26
734.729	2849.62
734.919	2889.72
735.109	2926.73
735.299	2869.38
735.488	2893.99
735.678	2896.12
735.868	2900.19
736.058	2917.82
736.248	2934.09
736.437	2874.03
736.627	2899.6
736.817	3024.57
737.007	2919.75
737.196	3016.63
737.386	3024.57
737.576	2965.09
737.765	3061.38
737.955	3055.18
738.144	3145.28
738.334	3119.9
738.524	3051.31
738.713	3099.55
738.903	3088.51
739.092	3167.94
739.282	3123.77
739.471	3194.49
739.661	3182.86
739.85	3231.3
740.04	3191.97
740.229	3217.16
740.419	3257.26
740.608	3335.34
740.797	3287.1
740.987	3370.99
741.176	3379.71
741.365	3311.9
741.555	3287.49
741.744	3377.77
741.933	3346.19
742.123	3398.7
742.312	3409.16
742.501	3408.77
742.69	3439.38
742.88	3383.59
743.069	3509.13
743.258	3465.73
743.447	3540.71
743.636	3522.11
743.825	3462.83
744.014	3532.58
744.204	3527.93
744.393	3484.14
744.582	3574.23
744.771	3576.56
744.96	3567.84
745.149	3591.48
745.338	3521.34
745.527	3584.7
745.716	3605.43
745.905	3561.45
746.094	3582.95
746.283	3657.16
746.471	3616.86
746.66	3709.27
746.849	3643.21
747.038	3680.41
747.227	3595.54
747.416	3664.13
747.604	3565.13
747.793	3631
747.982	3669.75
748.171	3665.68
748.359	3688.16
748.548	3668.01
748.737	3682.15
748.926	3686.41
749.114	3583.92
749.303	3703.46
749.491	3711.6
749.68	3602.33
749.869	3696.68
750.057	3631
750.246	3655.8
750.434	3650.38
750.623	3621.12
750.811	3602.52
751	3624.61
751.188	3623.44
751.377	3610.85
751.565	3621.51
751.754	3624.8
751.942	3601.55
752.131	3630.61
752.319	3601.94
752.507	3591.86
752.696	3653.09
752.884	3676.34
753.072	3622.48
753.261	3635.84
753.449	3617.24
753.637	3589.35
753.825	3709.27
754.014	3645.73
754.202	3643.98
754.39	3666.07
754.578	3685.25
754.766	3607.75
754.955	3600
755.143	3672.46
755.331	3643.98
755.519	3614.73
755.707	3627.71
755.895	3619.38
756.083	3626.93
756.271	3551.56
756.459	3629.26
756.647	3611.82
756.835	3592.06
757.023	3563.77
757.211	3557.18
757.399	3562.41
757.587	3521.73
757.775	3496.15
757.963	3498.48
758.151	3550.4
758.339	3502.93
758.526	3532.19
758.714	3477.75
758.902	3373.7
759.09	3278.38
759.278	3076.3
759.465	2782.78
759.653	2474.14
759.841	2230.21
760.028	1938.42
760.216	1666.4
760.404	1530.78
760.591	1296.73
760.779	1066.37
760.967	955.74
761.154	769.94
761.342	836.2
761.529	824.38
761.717	868.94
761.905	868.94
762.092	969.11
762.28	886.57
762.467	862.35
762.655	821.08
762.842	816.24
763.029	826.7
763.217	836.58
763.404	838.13
763.592	859.45
763.779	842.2
763.966	854.99
764.154	918.35
764.341	999.91
764.528	1015.22
764.716	1055.13
764.903	1093.69
765.09	1180.29
765.277	1228.15
765.465	1370.94
765.652	1450.38
765.839	1513.73
766.026	1666.79
766.213	1713.68
766.4	1841.94
766.588	2021.93
766.775	2049.83
766.962	2162.01
767.149	2248.23
767.336	2394.7
767.523	2387.14
767.71	2552.99
767.897	2647.15
768.084	2725.43
768.271	2742.67
768.458	2851.17
768.645	2849.04
768.832	2874.42
769.019	2894.95
769.206	2966.25
769.392	3014.11
769.579	3110.98
769.766	3046.47
769.953	3042.2
770.14	3117.18
770.327	3152.06
770.513	3164.26
770.7	3208.63
770.887	3154.38
771.073	3192.94
771.26	3201.46
771.447	3185.58
771.634	3117.38
771.82	3277.22
772.007	3181.89
772.193	3209.99
772.38	3240.79
772.567	3174.53
772.753	3152.64
772.94	3233.24
773.126	3231.69
773.313	3248.93
773.499	3233.04
773.686	3257.07
773.872	3187.13
774.059	3226.07
774.245	3150.7
774.432	3205.14
774.618	3124.74
774.804	3199.14
774.991	3122.03
775.177	3163.88
775.363	3118.35
775.55	3175.69
775.736	3133.65
775.922	3172.59
776.109	3174.92
776.295	3177.05
776.481	3159.23
776.667	3166.59
776.853	3133.26
777.04	3117.57
777.226	3118.73
777.412	3190.03
777.598	3087.73
777.784	3115.63
777.97	3111.37
778.156	3091.03
778.342	3055.57
778.528	3050.53
778.715	3069.52
778.901	3051.89
779.087	3075.33
779.272	3008.88
779.458	3028.45
779.644	3058.67
779.83	3049.57
780.016	3145.66
780.202	3010.82
780.388	3029.8
780.574	2985.82
780.76	2961.41
780.946	3033.29
781.131	3031.93
781.317	2955.21
781.503	2975.36
781.689	2979.82
781.874	3076.69
782.06	2989.89
782.246	2976.91
782.432	2973.62
782.617	2928.67
782.803	2984.27
782.989	2881.2
783.174	2940.68
783.36	2864.15
783.545	2896.7
783.731	2919.75
783.916	2799.63
784.102	2875.77
784.288	2860.66
784.473	2883.72
784.659	2828.11
784.844	2893.21
785.029	2847.68
785.215	2839.54
785.4	2818.62
785.586	2893.6
785.771	2786.26
785.956	2834.7
786.142	2792.46
786.327	2781.61
786.512	2775.61
786.698	2800.02
786.883	2751.97
787.068	2726.2
787.254	2782.97
787.439	2744.22
787.624	2712.83
787.809	2728.72
787.994	2719.23
788.18	2775.22
788.365	2652.19
788.55	2675.63
788.735	2665.95
788.92	2667.5
789.105	2690.36
789.29	2700.24
789.475	2603.37
789.66	2609.95
789.845	2602.59
790.03	2606.47
790.215	2681.83
790.4	2662.46
790.585	2660.33
790.77	2602.98
790.955	2558.03
791.14	2572.75
791.325	2672.92
791.51	2534.2
791.695	2605.3
791.879	2554.73
792.064	2538.65
792.249	2592.71
792.434	2603.75
792.618	2585.93
792.803	2614.02
792.988	2546.02
793.173	2577.21
793.357	2631.26
793.542	2567.72
793.727	2576.24
793.911	2617.51
794.096	2562.48
794.281	2602.2
794.465	2711.86
794.65	2615.18
794.834	2629.71
795.019	2716.9
795.203	2667.88
795.388	2627
795.572	2675.83
795.757	2622.16
795.941	2671.37
796.126	2618.87
796.31	2573.92
796.494	2623.52
796.679	2605.88
796.863	2590
797.048	2670.21
797.232	2609.18
797.416	2647.93
797.601	2596.2
797.785	2658
797.969	2682.03
798.153	2590.19
798.338	2660.13
798.522	2670.4
798.706	2660.91
798.89	2683.38
799.074	2769.02
799.258	2698.5
799.443	2674.47
799.627	2644.25
799.811	2707.8
799.995	2689.39
800.179	2630.68
800.363	2625.84
800.547	2655.29
800.731	2674.66
800.915	2582.83
801.099	2568.49
801.283	2633.59
801.467	2648.7
801.651	2637.66
801.835	2657.03
802.019	2643.08
802.202	2639.4
802.386	2606.85
802.57	2561.71
802.754	2600.27
802.938	2557.83
803.121	2583.22
803.305	2631.85
803.489	2626.03
803.673	2653.55
803.856	2641.92
804.04	2641.34
804.224	2600.46
804.407	2600.65
804.591	2610.53
804.775	2618.87
804.958	2615.18
805.142	2722.91
805.326	2684.55
805.509	2648.51
805.693	2673.11
805.876	2705.66
806.06	2694.43
806.243	2707.6
806.427	2686.29
806.61	2726.78
806.794	2657.42
806.977	2692.1
807.16	2632.04
807.344	2667.69
807.527	2682.61
807.71	2629.71
807.894	2633.78
808.077	2661.88
808.26	2602.78
808.444	2603.75
808.627	2640.18
808.81	2587.87
808.993	2532.45
809.177	2525.29
809.36	2576.24
809.543	2590.38
809.726	2502.62
809.909	2475.49
810.092	2447.98
810.276	2469.1
810.459	2439.26
810.642	2472.39
810.825	2434.42
811.008	2457.09
811.191	2354.98
811.374	2414.66
811.557	2397.99
811.74	2419.11
811.923	2322.04
812.106	2284.46
812.289	2286.78
812.472	2284.84
812.654	2310.61
812.837	2256.95
813.02	2192.81
813.203	2138.37
813.386	2080.44
813.569	2079.09
813.751	1989.57
813.934	2090.9
814.117	2018.25
814.3	1978.34
814.482	1921.38
814.665	1892.89
814.848	1867.13
815.03	1780.52
815.213	1787.5
815.396	1789.82
815.578	1760.18
815.761	1735.38
815.943	1787.5
816.126	1673.96
816.309	1645.48
816.491	1607.7
816.674	1536.59
816.856	1590.65
817.039	1592.39
817.221	1669.5
817.403	1613.7
817.586	1644.7
817.768	1655.75
817.951	1559.26
818.133	1557.71
818.315	1587.55
818.498	1655.55
818.68	1659.04
818.862	1649.55
819.045	1664.08
819.227	1667.76
819.409	1607.5
819.591	1675.32
819.774	1652.45
819.956	1626.69
820.138	1759.79
820.32	1710.77
820.502	1736.73
820.684	1828.38
820.866	1836.51
821.048	1894.64
821.231	1886.31
821.413	1869.84
821.595	1851.82
821.777	1891.54
821.959	1852.01
822.141	1920.99
822.323	1799.51
822.505	1694.69
822.686	1695.47
822.868	1577.09
823.05	1483.7
823.232	1459.09
823.414	1397.87
823.596	1486.8
823.778	1453.67
823.96	1476.92
824.141	1489.51
824.323	1538.14
824.505	1614.29
824.687	1647.22
824.868	1732.28
825.05	1759.4
825.232	1824.89
825.413	1873.91
825.595	1824.5
825.777	1753.98
825.958	1827.8
826.14	1792.34
826.321	1827.99
826.503	1808.81
826.685	1836.32
826.866	1834.77
827.048	1829.54
827.229	1782.46
827.411	1748.94
827.592	1673.18
827.773	1707.28
827.955	1644.12
828.136	1688.3
828.318	1644.12
828.499	1640.44
828.68	1603.82
828.862	1632.5
829.043	1641.6
829.224	1616.03
829.406	1605.18
829.587	1617.39
829.768	1615.84
829.949	1649.94
830.131	1606.54
830.312	1687.13
830.493	1638.31
830.674	1671.05
830.855	1646.64
831.036	1631.53
831.218	1668.15
831.399	1709.8
831.58	1652.84
831.761	1635.6
831.942	1672.22
832.123	1621.26
832.304	1592.2
832.485	1622.23
832.666	1620.87
832.847	1657.69
833.028	1633.66
833.209	1623.39
833.389	1622.62
833.57	1558.68
833.751	1643.93
833.932	1657.49
834.113	1640.25
834.294	1623.97
834.475	1642.19
834.655	1697.02
834.836	1698.95
835.017	1688.1
835.198	1637.73
835.378	1695.66
835.559	1716.2
835.74	1661.95
835.92	1644.12
836.101	1650.52
836.281	1728.98
836.462	1708.45
836.643	1718.52
836.823	1743.32
837.004	1725.69
837.184	1785.36
837.365	1765.99
837.545	1728.4
837.726	1698.76
837.906	1780.91
838.087	1715.23
838.267	1696.24
838.448	1681.9
838.628	1733.44
838.808	1723.37
838.989	1755.91
839.169	1679.38
839.349	1760.95
839.53	1751.27
839.71	1752.82
839.89	1719.3
840.07	1772.19
840.251	1695.66
840.431	1754.56
840.611	1705.93
840.791	1709.61
840.971	1714.07
841.151	1698.18
841.332	1682.29
841.512	1772
841.692	1667.18
841.872	1731.12
842.052	1682.48
842.232	1739.25
842.412	1679.58
842.592	1661.56
842.772	1729.76
842.952	1735.96
843.132	1660.98
843.312	1679.38
843.492	1679.38
843.672	1684.23
843.851	1610.6
844.031	1668.53
844.211	1690.82
844.391	1622.81
844.571	1675.51
844.751	1696.05
844.93	1691.98
845.11	1654.2
845.29	1669.5
845.47	1698.57
845.649	1666.99
845.829	1690.62
846.009	1637.92
846.188	1664.27
846.368	1709.61
846.547	1672.41
846.727	1702.83
846.907	1612.93
847.086	1643.93
847.266	1691.78
847.445	1642.19
847.625	1645.29
847.804	1651.29
847.984	1623.97
848.163	1667.76
848.343	1615.64
848.522	1623.97
848.701	1654
848.881	1575.73
849.06	1604.21
849.239	1622.62
849.419	1636.37
849.598	1545.31
849.777	1585.03
849.957	1531.94
850.136	1488.74
850.315	1501.91
850.494	1492.23
850.674	1523.42
850.853	1556.36
851.032	1497.46
851.211	1570.69
851.39	1516.06
851.569	1450.18
851.748	1480.79
851.927	1553.06
852.107	1495.71
852.286	1462.78
852.465	1479.83
852.644	1526.91
852.823	1508.5
853.002	1496.87
853.181	1534.07
853.359	1552.87
853.538	1436.43
853.717	1522.45
853.896	1428.09
854.075	1367.06
854.254	1316.5
854.433	1261.47
854.611	1316.11
854.79	1252.95
854.969	1339.36
855.148	1381.79
855.327	1299.25
855.505	1403.88
855.684	1366.29
855.863	1383.53
856.041	1349.05
856.22	1411.82
856.399	1380.24
856.577	1487.38
856.756	1448.83
856.934	1545.7
857.113	1522.26
857.291	1470.33
857.47	1447.66
857.648	1471.69
857.827	1475.56
858.005	1521.29
858.184	1430.81
858.362	1507.34
858.541	1447.47
858.719	1425.58
858.898	1418.99
859.076	1424.22
859.254	1519.93
859.433	1438.56
859.611	1428.29
859.789	1402.91
859.967	1475.37
860.146	1471.88
860.324	1380.82
860.502	1418.21
860.68	1373.07
860.859	1386.05
861.037	1378.69
861.215	1414.92
861.393	1384.89
861.571	1394
861.749	1399.03
861.927	1414.34
862.105	1382.37
862.283	1375.59
862.461	1364.55
862.639	1358.35
862.817	1358.15
862.995	1387.21
863.173	1377.33
863.351	1354.47
863.529	1383.15
863.707	1411.63
863.885	1400.78
864.063	1306.42
864.241	1311.65
864.418	1387.8
864.596	1334.13
864.774	1306.42
864.952	1319.01
865.129	1377.14
865.307	1315.92
865.485	1260.31
865.663	1352.34
865.84	1244.23
866.018	1279.1
866.196	1144.84
866.373	1189.79
866.551	1131.86
866.728	1115.19
866.906	1135.15
867.084	1144.64
867.261	1190.17
867.439	1218.07
867.616	1228.92
867.794	1220.4
867.971	1250.82
868.149	1240.35
868.326	1287.43
868.503	1254.5
868.681	1219.62
868.858	1193.66
869.035	1198.89
869.213	1264.96
869.39	1228.92
869.567	1317.47
869.745	1211.29
869.922	1225.44
870.099	1267.67
870.276	1263.8
870.454	1224.08
870.631	1245.2
870.808	1212.45
870.985	1244.62
871.162	1299.06
871.339	1253.53
871.517	1199.47
871.694	1183.39
871.871	1210.71
872.048	1199.09
872.225	1182.62
872.402	1206.45
872.579	1151.81
872.756	1236.48
872.933	1147.94
873.11	1203.93
873.287	1208.58
873.463	1158.2
873.64	1188.62
873.817	1208.19
873.994	1184.75
874.171	1149.49
874.348	1168.86
874.524	1129.92
874.701	1159.56
874.878	1105.89
875.055	1152.78
875.231	1169.83
875.408	1178.16
875.585	1104.54
875.762	1118.1
875.938	1098.14
876.115	1123.72
876.291	1125.66
876.468	1109.77
876.645	1088.07
876.821	1112.48
876.998	1101.82
877.174	1102.02
877.351	1119.65
877.527	1066.95
877.704	1079.93
877.88	1079.35
878.057	1094.66
878.233	1132.44
878.409	1084.77
878.586	1130.69
878.762	1094.46
878.938	1088.84
879.115	1053.39
879.291	1091.36
879.467	1033.24
879.644	1057.65
879.82	1114.61
879.996	1067.72
880.172	1023.55
880.349	1064.82
880.525	1086.13
880.701	1007.47
880.877	1050.29
881.053	1048.93
881.229	1029.36
881.405	1106.28
881.581	1013.28
881.757	1026.46
881.933	1076.25
882.109	1074.7
882.285	1039.63
882.461	968.33
882.637	1022.58
882.813	1037.11
882.989	1016.19
883.165	1093.88
883.341	1038.28
883.517	1076.06
883.693	1037.69
883.869	1054.36
884.044	1035.76
884.22	1067.34
884.396	1082.84
884.572	1076.25
884.747	1090.59
884.923	1077.22
885.099	1095.24
885.275	1078.96
885.45	1027.23
885.626	1028.2
885.801	1006.89
885.977	1037.89
886.153	983.44
886.328	1043.31
886.504	1029.75
886.679	1044.86
886.855	1012.31
887.03	1042.34
887.206	1057.07
887.381	1058.81
887.557	1045.44
887.732	1059.59
887.908	1051.64
888.083	1089.81
888.258	1024.33
888.434	1053.39
888.609	1017.16
888.784	1075.86
888.96	1021.81
889.135	1022.58
889.31	1026.46
889.485	1057.07
889.661	992.74
889.836	1060.36
890.011	1053.39
890.186	1027.23
890.361	1012.51
890.537	1067.72
890.712	1029.94
890.887	1001.85
891.062	1024.71
891.237	1069.86
891.412	997.01
891.587	1043.7
891.762	1053
891.937	1051.84
892.112	1002.04
892.287	1018.13
892.462	959.23
892.637	959.42
892.812	965.43
892.987	948.18
893.161	952.25
893.336	954
893.511	963.3
893.686	915.83
893.861	937.91
894.035	919.12
894.21	951.09
894.385	869.13
894.56	936.17
894.734	846.47
894.909	861.77
895.084	864.87
895.258	844.53
895.433	825.73
895.608	815.85
895.782	777.1
895.957	784.08
896.131	776.52
896.306	700.19
896.48	707.16
896.655	750.95
896.829	698.06
897.004	683.72
897.178	700.38
897.353	685.07
897.527	753.66
897.701	709.29
897.876	674.22
898.05	727.31
898.224	730.22
898.399	724.6
898.573	701.74
898.747	557.2
898.921	631.99
899.096	550.61
899.27	561.08
899.444	554.68
899.618	601.76
899.792	603.51
899.967	607.38
900.141	644.58
900.315	567.08
900.489	582
900.663	611.64
900.837	598.08
901.011	515.55
901.185	662.79
901.359	600.79
901.533	604.09
901.707	620.75
901.881	589.75
902.055	513.41
902.229	579.68
902.403	642.84
902.576	608.16
902.75	613.78
902.924	714.91
903.098	662.21
903.272	715.1
903.446	733.12
903.619	727.89
903.793	749.01
903.967	729.44
904.14	804.42
904.314	762.38
904.488	739.71
904.661	766.45
904.835	774
905.009	810.62
905.182	807.91
905.356	772.07
905.529	747.65
905.703	729.83
905.876	718.4
906.05	704.45
906.223	671.51
906.397	625.21
906.57	621.91
906.744	615.33
906.917	594.98
907.09	588.39
907.264	589.36
907.437	572.89
907.61	520.2
907.784	569.02
907.957	575.22
908.13	531.82
908.304	580.26
908.477	536.28
908.65	533.56
908.823	503.73
908.996	603.31
909.17	527.75
909.343	525.62
909.516	555.07
909.689	547.71
909.862	504.7
910.035	519.42
910.208	478.35
910.381	473.11
910.554	598.28
910.727	533.56
910.9	517.87
911.073	500.24
911.246	578.13
911.419	565.73
911.592	544.99
911.765	522.71
911.938	501.79
912.11	535.89
912.283	517.1
912.456	570.96
912.629	530.66
912.802	494.43
912.974	472.34
913.147	432.62
913.32	398.52
913.493	432.23
913.665	437.85
913.838	463.43
914.01	461.88
914.183	491.52
914.356	477.96
914.528	498.11
914.701	538.41
914.873	520.78
915.046	459.94
915.218	431.46
915.391	348.54
915.563	400.27
915.736	437.85
915.908	450.83
916.081	425.26
916.253	462.07
916.425	475.25
916.598	465.95
916.77	446.96
916.942	406.47
917.115	346.6
917.287	420.22
917.459	438.43
917.632	395.81
917.804	345.05
917.976	411.31
918.148	401.23
918.32	444.63
918.493	485.9
918.665	506.63
918.837	472.53
919.009	525.04
919.181	517.1
919.353	473.5
919.525	488.42
919.697	492.1
919.869	461.3
920.041	526.78
920.213	586.26
920.385	505.28
920.557	498.3
920.729	500.05
920.901	481.64
921.073	488.61
921.244	477.96
921.416	506.05
921.588	475.44
921.76	460.71
921.932	518.06
922.103	478.54
922.275	496.17
922.447	486.68
922.619	429.33
922.79	483.19
922.962	462.26
923.134	491.52
923.305	423.32
923.477	442.7
923.648	400.07
923.82	468.85
923.991	400.27
924.163	400.85
924.335	431.85
924.506	407.82
924.677	442.89
924.849	383.99
925.02	439.02
925.192	432.43
925.363	436.69
925.535	406.27
925.706	384.38
925.877	469.24
926.049	391.55
926.22	433.2
926.391	431.65
926.562	446.57
926.734	383.22
926.905	439.98
927.076	360.16
927.247	383.41
927.419	352.99
927.59	378.37
927.761	350.09
927.932	323.54
928.103	312.5
928.274	306.3
928.445	291.57
928.616	310.56
928.787	279.17
928.958	323.93
929.129	308.04
929.3	284.21
929.471	223.57
929.642	210.78
929.813	183.66
929.984	259.61
930.155	179.78
930.326	232.48
930.496	156.53
930.667	148.2
930.838	170.48
931.009	151.69
931.18	165.64
931.35	161.57
931.521	157.69
931.692	115.07
931.863	64.7
932.033	117.39
932.204	142
932.374	138.71
932.545	76.71
932.716	132.7
932.886	112.16
933.057	53.07
933.227	67.8
933.398	162.34
933.568	50.94
933.739	53.07
933.909	29.05
934.08	66.25
934.25	6.57
934.421	61.01
934.591	48.42
934.761	60.63
934.932	40.28
935.102	63.92
935.272	49.39
935.443	32.73
935.613	44.16
935.783	61.6
935.953	-9.12
936.123	192.96
936.294	4.63
936.464	65.47
936.634	58.69
936.804	-4.28
936.974	11.8
937.144	73.41
937.314	50.16
937.484	39.12
937.655	27.88
937.825	112.94
937.995	-2.73
938.165	96.28
938.334	44.93
938.504	60.63
938.674	62.95
938.844	86.78
939.014	128.24
939.184	96.66
939.354	144.91
939.524	143.16
939.694	104.99
939.863	89.5
940.033	150.72
940.203	146.65
940.373	125.73
940.542	113.13
940.712	101.7
940.882	98.02
941.051	144.71
941.221	122.63
941.391	147.04
941.56	86.4
941.73	77.48
941.899	167.96
942.069	68.76
942.238	125.73
942.408	91.05
942.577	127.08
942.747	58.69
942.916	48.03
943.086	67.02
943.255	138.9
943.425	98.99
943.594	70.12
943.763	4.44
943.933	52.88
944.102	11.8
944.271	118.94
944.441	102.67
944.61	55.98
944.779	72.64
944.948	124.76
945.117	30.01
945.287	61.01
945.456	-5.63
945.625	38.73
945.794	98.99
945.963	49.78
946.132	86.98
946.301	66.44
946.47	90.27
946.639	18.97
946.808	49.97
946.977	109.26
947.146	133.09
947.315	87.17
947.484	96.47
947.653	76.32
947.822	65.66
947.991	69.93
948.16	136.19
948.329	82.52
948.498	65.28
948.666	65.08
948.835	101.12
949.004	28.66
949.173	22.26
949.341	85.04
949.51	82.91
949.679	112.36
949.847	95.5
950.016	151.88
950.185	130.76
950.353	68.76
950.522	76.51
950.69	138.32
950.859	59.46
951.028	99.18
951.196	92.98
951.365	56.75
951.533	54.43
951.701	89.69
951.87	107.9
952.038	17.61
952.207	70.12
952.375	129.99
952.543	58.88
952.712	85.43
952.88	57.91
953.048	134.64
953.217	82.13
953.385	71.48
953.553	122.43
953.721	42.61
953.89	78.06
954.058	35.63
954.226	57.53
954.394	85.81
954.562	51.91
954.73	84.26
954.898	68.57
955.067	86.01
955.235	63.73
955.403	82.33
955.571	149.17
955.739	78.26
955.907	40.48
956.075	61.98
956.243	54.04
956.41	96.66
956.578	52.68
956.746	30.4
956.914	78.84
957.082	99.57
957.25	113.33
957.418	89.11
957.585	90.66
957.753	108.09
957.921	43.58
958.089	106.54
958.256	94.53
958.424	81.36
958.592	72.25
958.759	58.88
958.927	91.05
959.095	49.39
959.262	84.85
959.43	71.09
959.597	67.8
959.765	83.68
959.932	37.38
960.1	119.33
960.267	91.82
960.435	61.21
960.602	104.61
960.77	58.5
960.937	53.85
961.104	78.06
961.272	15.87
961.439	79.61
961.606	93.18
961.774	104.22
961.941	90.66
962.108	96.66
962.275	90.85
962.443	130.18
962.61	117.39
962.777	134.83
962.944	127.08
963.111	100.93
963.278	117.59
963.446	78.65
963.613	102.67
963.78	125.92
963.947	115.46
964.114	92.01
964.281	150.33
964.448	134.06
964.615	68.96
964.782	111.78
964.949	148.78
965.116	129.6
965.282	132.89
965.449	96.86
965.616	59.08
965.783	102.28
965.95	100.54
966.117	82.91
966.283	79.61
966.45	110.23
966.617	109.64
966.784	146.65
966.95	119.14
967.117	131.73
967.284	93.18
967.45	88.14
967.617	166.61
967.784	142.78
967.95	160.79
968.117	122.04
968.283	161.38
968.45	195.09
968.616	143.74
968.783	165.25
968.949	114.49
969.116	156.14
969.282	133.28
969.449	136.77
969.615	124.18
969.781	86.2
969.948	128.83
970.114	79.81
970.28	204.19
970.447	121.66
970.613	151.11
970.779	113.52
970.945	139.48
971.112	146.07
971.278	136.77
971.444	132.51
971.61	155.95
971.776	111.97
971.942	137.54
972.108	145.88
972.275	128.63
972.441	134.83
972.607	213.88
972.773	86.78
972.939	148.59
973.105	128.44
973.271	94.34
973.437	96.28
973.602	90.85
973.768	124.56
973.934	125.34
974.1	112.55
974.266	61.98
974.432	130.18
974.598	104.61
974.763	151.11
974.929	92.98
975.095	152.27
975.261	82.71
975.426	88.33
975.592	121.27
975.758	163.51
975.923	73.22
976.089	98.79
976.255	123.79
976.42	115.84
976.586	108.68
976.751	129.21
976.917	199.74
977.082	120.88
977.248	70.9
977.413	26.33
977.579	102.67
977.744	108.87
977.91	81.16
978.075	76.13
978.24	130.38
978.406	111.19
978.571	82.91
978.736	78.65
978.902	138.9
979.067	94.92
979.232	46.87
979.397	100.15
979.563	134.06
979.728	85.62
979.893	98.21
980.058	102.67
980.223	142.78
980.388	88.33
980.554	131.54
980.719	99.38
980.884	125.73
981.049	128.83
981.214	97.63
981.379	120.88
981.544	93.18
981.709	88.14
981.874	112.94
982.039	111
982.204	135.8
982.368	82.33
982.533	82.33
982.698	133.28
982.863	161.57
983.028	73.22
983.193	101.12
983.357	122.43
983.522	93.37
983.687	97.63
983.852	82.33
984.016	117.98
984.181	106.35
984.346	144.13
984.51	130.76
984.675	113.13
984.839	126.11
985.004	117.98
985.168	151.49
985.333	121.85
985.498	107.9
985.662	136.77
985.827	129.02
985.991	122.04
986.155	98.79
986.32	136.58
986.484	145.88
986.649	112.94
986.813	61.98
986.977	122.82
987.142	111.58
987.306	83.68
987.47	92.79
987.634	101.7
987.799	116.04
987.963	111.39
988.127	102.28
988.291	169.9
988.455	98.99
988.62	92.21
988.784	115.07
988.948	134.83
989.112	61.98
989.276	123.59
989.44	97.44
989.604	90.85
989.768	98.79
989.932	178.81
990.096	76.13
990.26	68.76
990.424	71.09
990.588	102.09
990.752	157.89
990.915	135.61
991.079	88.53
991.243	100.15
991.407	140.84
991.571	111.58
991.734	113.71
991.898	122.82
992.062	167.77
992.226	99.57
992.389	83.49
992.553	51.33
992.717	61.98
992.88	79.42
993.044	94.34
993.207	64.5
993.371	120.11
993.535	98.79
993.698	94.15
993.862	104.8
994.025	120.88
994.189	89.88
994.352	95.31
994.515	113.71
994.679	126.31
994.842	75.93
995.006	113.71
995.169	69.15
995.332	77.48
995.496	106.35
995.659	67.02
995.822	92.4
995.985	80
996.149	114.49
996.312	84.07
996.475	160.21
996.638	78.26
996.801	124.18
996.964	137.16
997.128	84.26
997.291	76.13
997.454	90.46
997.617	53.46
997.78	133.28
997.943	61.01
998.106	121.85
998.269	76.32
998.432	70.12
998.595	90.66
998.758	30.79
998.92	77.48
999.083	18.97
999.246	83.1
999.409	42.41
999.572	5.41
999.735	66.44
999.897	76.13
1000.06	75.93
1000.223	43.19
1000.386	92.01
1000.548	92.79
1000.711	96.66
1000.874	94.92
1001.036	28.08
1001.199	89.3
1001.361	71.86
1001.524	54.62
1001.687	94.34
1001.849	43.77
1002.012	77.68
1002.174	60.24
1002.337	100.93
1002.499	73.61
1002.661	125.92
1002.824	30.98
1002.986	64.5
1003.149	63.15
1003.311	47.26
1003.473	118.56
1003.636	54.23
1003.798	95.69
1003.96	84.07
1004.123	81.16
1004.285	51.91
1004.447	50.55
1004.609	45.32
1004.771	148.01
1004.933	40.48
1005.096	24.59
1005.258	15.1
1005.42	34.66
1005.582	116.81
1005.744	71.28
1005.906	44.74
1006.068	67.21
1006.23	10.25
1006.392	-6.8
1006.554	27.3
1006.716	86.01
1006.878	68.18
1007.04	25.36
1007.202	55.01
1007.363	48.81
1007.525	51.52
1007.687	55.2
1007.849	94.15
1008.011	18.39
1008.172	25.36
1008.334	46.48
1008.496	72.83
1008.658	12.58
1008.819	23.23
1008.981	12.77
1009.143	17.03
1009.304	27.88
1009.466	73.61
1009.627	102.67
1009.789	123.79
1009.95	66.25
1010.112	51.13
1010.273	70.31
1010.435	33.89
1010.596	48.03
1010.758	53.46
1010.919	25.95
1011.081	29.63
1011.242	72.64
1011.403	64.31
1011.565	20.71
1011.726	69.35
1011.887	42.61
1012.049	37.76
1012.21	108.09
1012.371	90.27
1012.532	2.31
1012.693	41.64
1012.855	20.91
1013.016	29.82
1013.177	83.3
1013.338	40.48
1013.499	94.15
1013.66	76.32
1013.821	75.93
1013.982	52.49
1014.143	51.91
1014.304	42.03
1014.465	76.13
1014.626	57.91
1014.787	48.23
1014.948	127.86
1015.109	-22.1
1015.27	95.11
1015.431	51.52
1015.592	-1.18
1015.752	83.68
1015.913	50.75
1016.074	59.85
1016.235	61.01
1016.395	22.46
1016.556	47.65
1016.717	27.69
1016.877	76.13
1017.038	19.36
1017.199	43
1017.359	35.44
1017.52	57.91
1017.681	21.68
1017.841	51.33
1018.002	46.87
1018.162	19.16
1018.323	91.05
1018.483	27.3
1018.644	36.6
1018.804	6.18
1018.964	20.13
1019.125	33.7
1019.285	43.19
1019.446	8.12
1019.606	-24.23
1019.766	2.89
1019.926	59.27
1020.087	53.65
1020.247	-3.12
1020.407	59.08
1020.567	60.43
1020.728	14.9
1020.888	20.13
1021.048	3.28
1021.208	7.73
1021.368	0.76
1021.528	65.28
1021.688	67.6
1021.848	66.44
1022.008	43.96
1022.168	5.41
1022.328	37.18
1022.488	31.18
1022.648	12.19
1022.808	45.51
1022.968	41.06
1023.128	4.44
1023.288	2.31
1023.448	25.95
1023.608	36.41
1023.767	49.78
1023.927	16.84
1024.087	12.58
1024.247	-0.6
1024.406	-13.38
1024.566	-2.15
1024.726	21.49
1024.885	19.75
1025.045	70.12
1025.205	4.83
1025.364	19.94
1025.524	65.08
1025.683	12.19
1025.843	47.45
1026.003	22.46
1026.162	93.95
1026.321	85.04
1026.481	20.71
1026.64	18.97
1026.8	38.93
1026.959	35.25
1027.119	39.7
1027.278	19.94
1027.437	-9.51
1027.597	43.19
1027.756	47.26
1027.915	43.38
1028.074	53.46
1028.234	10.83
1028.393	47.06
1028.552	20.33
1028.711	-32.18
1028.87	61.01
1029.03	-12.42
1029.189	22.46
1029.348	-27.53
1029.507	-18.62
1029.666	15.48
1029.825	-5.44
1029.984	8.7
1030.143	19.55
1030.302	23.62
1030.461	-38.96
1030.62	42.8
1030.779	26.72
1030.938	-13
1031.097	2.7
1031.255	47.06
1031.414	79.23
1031.573	46.29
1031.732	-17.07
1031.891	10.64
1032.049	40.86
1032.208	61.6
1032.367	7.73
1032.525	16.84
1032.684	-2.34
1032.843	26.14
1033.001	-37.99
1033.16	148.39
1033.319	76.32
1033.477	41.64
1033.636	8.7
1033.794	-13.58
1033.953	57.33
1034.111	6.96
1034.27	-8.93
1034.428	30.6
1034.587	7.93
1034.745	24.2
1034.903	6.18
1035.062	45.9
1035.22	-41.67
1035.378	33.31
1035.537	-1.57
1035.695	39.51
1035.853	-11.06
1036.011	27.5
1036.17	32.15
1036.328	-34.7
1036.486	4.05
1036.644	32.15
1036.802	-51.75
1036.96	0.95
1037.119	-19.58
1037.277	9.28
1037.435	-2.53
1037.593	-24.62
1037.751	25.56
1037.909	51.13
1038.067	51.13
