Data from oakcork_FLMT105791__196__17-32-09-057.txt Node

Date: Mon Mar 20 17:32:09 GMT 2023
User: antho
Spectrometer: FLMT10579
Trigger mode: 0
Integration Time (sec): 1.000000E-1
Scans to average: 10
Electric dark correction enabled: true
Nonlinearity correction enabled: false
Boxcar width: 0
XAxis mode: Wavelengths
Number of Pixels in Spectrum: 3648
>>>>>Begin Spectral Data<<<<<
345.248	-167.77
345.464	-167.77
345.681	-167.77
345.898	-131.34
346.114	-125.14
346.331	-20.71
346.548	23.85
346.764	-20.13
346.981	-9.28
347.197	-5.22
347.414	20.75
347.631	-4.05
347.847	44.19
348.064	18.62
348.28	-3.08
348.497	-43.19
348.713	-1.73
348.93	15.52
349.146	18.81
349.363	-13.16
349.579	20.94
349.796	16.1
350.012	-2.5
350.229	9.32
350.445	4.28
350.661	-5.02
350.878	-14.51
351.094	18.03
351.311	33.92
351.527	24.43
351.743	-28.46
351.96	22.88
352.176	34.7
352.392	52.52
352.609	47.48
352.825	18.03
353.041	22.3
353.257	19.2
353.474	-1.73
353.69	12.42
353.906	4.67
354.122	-15.29
354.339	62.02
354.555	19.78
354.771	-8.7
354.987	41.09
355.203	62.21
355.42	-30.4
355.636	-4.44
355.852	-21.1
356.068	11.06
356.284	-34.28
356.5	43.03
356.716	26.17
356.932	-2.89
357.148	18.23
357.364	-4.44
357.58	57.75
357.796	61.63
358.012	68.6
358.228	24.04
358.444	-35.44
358.66	61.82
358.876	19
359.092	-10.45
359.308	32.57
359.524	29.08
359.74	-5.02
359.956	-7.54
360.172	33.34
360.388	46.32
360.604	-1.15
360.819	90.3
361.035	21.72
361.251	19.97
361.467	-19.75
361.683	50.78
361.898	13.58
362.114	44.19
362.33	20.75
362.546	41.09
362.762	12.22
362.977	27.92
363.193	-35.83
363.409	32.37
363.624	-20.91
363.84	11.83
364.056	-11.41
364.271	30.24
364.487	19.78
364.703	14.55
364.918	-27.88
365.134	33.92
365.35	27.33
365.565	79.84
365.781	14.93
365.996	50.2
366.212	89.14
366.427	2.73
366.643	28.88
366.858	1.18
367.074	-1.34
367.289	24.43
367.505	102.9
367.72	-14.13
367.936	5.63
368.151	69.38
368.367	36.83
368.582	30.63
368.798	-14.71
369.013	58.92
369.228	25.78
369.444	12.42
369.659	67.05
369.874	36.63
370.09	72.87
370.305	-13.16
370.52	13.19
370.736	84.88
370.951	11.64
371.166	62.6
371.381	94.56
371.597	64.73
371.812	-15.68
372.027	7.96
372.242	20.36
372.458	79.45
372.673	7.57
372.888	1.76
373.103	37.41
373.318	113.75
373.533	48.07
373.749	21.33
373.964	-19.94
374.179	69.38
374.394	-13.93
374.609	76.35
374.824	-2.31
375.039	43.8
375.254	20.75
375.469	74.42
375.684	40.7
375.899	69.57
376.114	10.09
376.329	39.54
376.544	41.09
376.759	51.75
376.974	-18.39
377.189	32.76
377.404	26.75
377.619	60.85
377.834	-24.98
378.049	-3.47
378.264	-20.71
378.478	32.37
378.693	18.23
378.908	39.54
379.123	5.44
379.338	67.25
379.553	41.09
379.767	39.15
379.982	51.36
380.197	46.9
380.412	30.24
380.626	29.47
380.841	105.41
381.056	53.88
381.271	85.85
381.485	13
381.7	4.47
381.915	-2.89
382.129	28.88
382.344	54.85
382.559	22.1
382.773	48.84
382.988	-5.6
383.202	30.63
383.417	-7.35
383.632	112.58
383.846	32.76
384.061	34.7
384.275	31.79
384.49	31.02
384.704	40.32
384.919	43.42
385.133	29.08
385.348	54.07
385.562	-7.73
385.777	70.93
385.991	29.66
386.206	37.8
386.42	22.3
386.634	66.28
386.849	53.88
387.063	45.35
387.277	-0.95
387.492	16.48
387.706	15.13
387.92	24.82
388.135	56.2
388.349	56.2
388.563	33.15
388.778	76.55
388.992	19.97
389.206	69.96
389.42	107.16
389.635	13.58
389.849	67.44
390.063	83.52
390.277	57.37
390.491	74.03
390.706	55.82
390.92	54.46
391.134	31.6
391.348	47.87
391.562	-8.31
391.776	31.98
391.99	6.41
392.205	83.52
392.419	3.5
392.633	28.88
392.847	91.27
393.061	37.22
393.275	106
393.489	34.7
393.703	56.4
393.917	71.7
394.131	13.19
394.345	59.5
394.559	52.91
394.773	32.57
394.986	43.03
395.2	34.12
395.414	45.93
395.628	19.58
395.842	39.35
396.056	37.41
396.27	-19.36
396.484	65.89
396.697	59.69
396.911	93.4
397.125	48.65
397.339	91.08
397.553	53.88
397.766	86.04
397.98	65.89
398.194	90.3
398.408	26.56
398.621	55.62
398.835	87.01
399.049	53.49
399.262	109.87
399.476	62.02
399.69	72.67
399.903	127.7
400.117	59.88
400.331	79.65
400.544	26.56
400.758	172.06
400.971	66.86
401.185	92.43
401.398	29.27
401.612	114.33
401.826	101.73
402.039	99.6
402.253	25.59
402.466	100.96
402.68	72.48
402.893	87.98
403.106	69.57
403.32	77.71
403.533	76.93
403.747	53.68
403.96	72.87
404.174	59.11
404.387	31.6
404.6	55.04
404.814	115.3
405.027	72.87
405.24	73.64
405.454	69.96
405.667	88.36
405.88	19.39
406.094	39.35
406.307	104.45
406.52	78.68
406.733	47.87
406.947	28.69
407.16	132.93
407.373	109.29
407.586	39.93
407.799	7.38
408.012	106
408.226	102.9
408.439	92.63
408.652	12.61
408.865	62.79
409.078	136.8
409.291	66.28
409.504	31.79
409.717	88.95
409.93	98.83
410.143	75.58
410.357	4.67
410.57	24.04
410.783	56.59
410.996	67.25
411.209	68.99
411.421	116.26
411.634	80.81
411.847	42.64
412.06	95.53
412.273	70.93
412.486	60.47
412.699	166.45
412.912	57.95
413.125	94.95
413.338	111.61
413.55	100.96
413.763	86.43
413.976	99.8
414.189	58.14
414.402	54.07
414.615	125.95
414.827	51.94
415.04	104.45
415.253	96.5
415.466	128.66
415.678	149.78
415.891	86.43
416.104	112
416.316	95.34
416.529	55.82
416.742	99.8
416.954	112.97
417.167	65.89
417.38	71.7
417.592	128.47
417.805	68.6
418.017	45.93
418.23	85.26
418.442	77.52
418.655	71.9
418.868	61.82
419.08	101.73
419.293	116.46
419.505	96.5
419.718	91.85
419.93	139.51
420.142	75.19
420.355	125.18
420.567	151.53
420.78	113.16
420.992	99.02
421.205	135.64
421.417	76.16
421.629	67.63
421.842	75.97
422.054	45.93
422.266	100.76
422.479	118.98
422.691	78.87
422.903	131.57
423.115	73.64
423.328	93.01
423.54	92.43
423.752	105.22
423.964	89.91
424.177	93.98
424.389	79.26
424.601	196.67
424.813	106.19
425.025	124.01
425.238	101.54
425.45	74.03
425.662	83.13
425.874	363.49
426.086	81.97
426.298	120.14
426.51	95.34
426.722	115.88
426.934	74.61
427.146	131.76
427.358	53.88
427.57	142.42
427.782	93.79
427.994	102.51
428.206	77.13
428.418	41.28
428.63	136.41
428.842	101.93
429.054	85.26
429.266	109.48
429.478	62.98
429.69	119.17
429.902	51.75
430.114	87.59
430.325	128.47
430.537	43.03
430.749	97.86
430.961	58.72
431.173	92.63
431.384	114.91
431.596	47.1
431.808	60.47
432.02	98.44
432.231	113.94
432.443	146.49
432.655	107.93
432.867	80.81
433.078	139.71
433.29	160.25
433.502	125.56
433.713	108.71
433.925	120.33
434.136	145.52
434.348	71.12
434.56	55.04
434.771	187.76
434.983	82.94
435.194	106.38
435.406	98.63
435.617	148.43
435.829	170.9
436.04	153.46
436.252	154.63
436.463	170.9
436.675	157.15
436.886	105.22
437.098	124.01
437.309	190.47
437.521	129.25
437.732	118.4
437.943	132.54
438.155	131.57
438.366	70.15
438.578	167.8
438.789	150.17
439	148.04
439.211	113.75
439.423	115.49
439.634	153.27
439.845	147.07
440.057	139.51
440.268	158.11
440.479	104.06
440.69	130.8
440.902	123.24
441.113	154.63
441.324	122.27
441.535	152.11
441.746	168.58
441.957	99.6
442.168	132.15
442.38	153.66
442.591	175.36
442.802	107.74
443.013	102.51
443.224	142.23
443.435	114.33
443.646	141.06
443.857	118.01
444.068	126.53
444.279	119.17
444.49	184.46
444.701	163.15
444.912	240.07
445.123	165.48
445.334	172.64
445.545	148.43
445.756	124.21
445.967	137.58
446.178	160.63
446.388	179.04
446.599	161.8
446.81	158.7
447.021	147.07
447.232	172.64
447.443	202.68
447.653	141.45
447.864	202.87
448.075	158.89
448.286	183.11
448.496	170.32
448.707	196.67
448.918	167.61
449.129	229.99
449.339	142.42
449.55	172.84
449.761	147.65
449.971	195.12
450.182	149.78
450.393	205.97
450.603	135.06
450.814	186.21
451.024	184.66
451.235	179.62
451.446	225.15
451.656	221.86
451.867	125.56
452.077	188.14
452.288	202.48
452.498	238.33
452.709	148.04
452.919	192.02
453.13	155.01
453.34	198.99
453.55	141.06
453.761	198.8
453.971	206.94
454.182	214.49
454.392	178.46
454.602	242.59
454.813	175.36
455.023	207.13
455.233	142.23
455.444	172.45
455.654	133.31
455.864	203.45
456.075	160.63
456.285	154.63
456.495	137.77
456.705	185.43
456.916	206.16
457.126	235.61
457.336	181.56
457.546	134.86
457.756	148.04
457.967	246.27
458.177	163.73
458.387	180.59
458.597	174.19
458.807	166.06
459.017	155.98
459.227	159.66
459.437	160.83
459.647	228.64
459.857	214.69
460.068	152.88
460.278	223.41
460.488	165.48
460.698	254.41
460.908	208.49
461.117	155.21
461.327	147.65
461.537	180.98
461.747	178.46
461.957	177.1
462.167	280.17
462.377	224.38
462.587	189.11
462.797	216.82
463.007	206.55
463.216	207.33
463.426	219.73
463.636	200.16
463.846	169.54
464.056	203.26
464.265	229.22
464.475	175.55
464.685	193.96
464.895	216.04
465.104	185.24
465.314	215.46
465.524	195.51
465.733	171.87
465.943	261.77
466.153	259.25
466.362	254.6
466.572	207.71
466.782	188.34
466.991	220.31
467.201	260.02
467.41	167.22
467.62	222.05
467.829	206.94
468.039	219.53
468.249	234.26
468.458	186.59
468.668	232.71
468.877	223.99
469.086	264.87
469.296	232.51
469.505	206.94
469.715	279.79
469.924	238.52
470.134	285.99
470.343	276.49
470.552	197.83
470.762	232.71
470.971	206.74
471.18	221.47
471.39	212.36
471.599	185.04
471.808	248.01
472.018	209.84
472.227	249.76
472.436	275.52
472.645	220.11
472.855	206.36
473.064	262.16
473.273	247.63
473.482	266.42
473.691	268.16
473.901	280.37
474.11	230.19
474.319	326.09
474.528	233.87
474.737	276.3
474.946	281.14
475.155	246.85
475.364	292.77
475.573	260.8
475.783	264.29
475.992	284.63
476.201	283.27
476.41	233.87
476.619	250.92
476.828	259.64
477.037	259.64
477.245	247.43
477.454	263.51
477.663	238.52
477.872	249.56
478.081	320.86
478.29	216.82
478.499	345.85
478.708	283.86
478.917	349.73
479.125	272.42
479.334	300.71
479.543	258.09
479.752	285.02
479.961	291.99
480.169	283.08
480.378	291.8
480.587	392.16
480.796	295.67
481.004	274.17
481.213	344.89
481.422	309.24
481.63	290.06
481.839	327.84
482.048	356.51
482.256	310.98
482.465	322.22
482.674	327.06
482.882	311.95
483.091	375.69
483.299	311.37
483.508	343.72
483.716	294.71
483.925	322.61
484.134	303.62
484.342	320.28
484.551	355.93
484.759	342.75
484.967	310.98
485.176	345.85
485.384	352.44
485.593	377.24
485.801	347.6
486.01	332.1
486.218	323.57
486.426	292.19
486.635	300.71
486.843	309.24
487.051	310.98
487.26	289.86
487.468	317.96
487.676	363.1
487.885	314.08
488.093	340.62
488.301	344.11
488.509	364.26
488.717	374.14
488.926	345.27
489.134	352.64
489.342	360.77
489.55	306.52
489.758	324.74
489.967	332.87
490.175	444.47
490.383	315.63
490.591	408.63
490.799	330.36
491.007	380.15
491.215	374.34
491.423	361.55
491.631	377.24
491.839	404.95
492.047	403.98
492.255	363.68
492.463	317.57
492.671	358.25
492.879	406.5
493.087	348.18
493.295	382.28
493.503	415.8
493.711	427.04
493.919	439.63
494.127	441.76
494.334	447.96
494.542	386.35
494.75	382.47
494.958	377.24
495.166	445.44
495.374	443.12
495.581	399.72
495.789	431.88
495.997	448.54
496.205	401.65
496.412	380.92
496.62	402.04
496.828	404.56
497.035	411.73
497.243	414.64
497.451	394.68
497.658	420.84
497.866	430.52
498.074	466.56
498.281	395.07
498.489	468.88
498.696	424.71
498.904	413.86
499.112	412.12
499.319	473.53
499.527	404.75
499.734	478.38
499.942	398.55
500.149	427.42
500.357	450.28
500.564	384.02
500.771	448.35
500.979	404.75
501.186	410.37
501.394	435.37
501.601	448.15
501.808	464.82
502.016	452.03
502.223	440.02
502.43	443.31
502.638	436.14
502.845	402.82
503.052	498.33
503.26	403.01
503.467	521
503.674	439.24
503.881	455.71
504.089	513.64
504.296	474.31
504.503	413.28
504.71	486.52
504.917	431.49
505.125	442.34
505.332	465.01
505.539	472.95
505.746	501.43
505.953	481.09
506.16	485.55
506.367	533.4
506.574	514.22
506.781	533.6
506.988	460.94
507.195	497.56
507.402	501.82
507.609	514.22
507.816	472.18
508.023	480.9
508.23	474.89
508.437	430.52
508.644	502.98
508.851	538.05
509.058	540.76
509.265	497.56
509.472	507.05
509.679	583.58
509.885	502.4
510.092	529.33
510.299	482.64
510.506	526.04
510.713	521.78
510.92	510.15
511.126	542.31
511.333	549.1
511.54	536.7
511.746	597.92
511.953	584.36
512.16	567.5
512.367	527.59
512.573	521.58
512.78	569.83
512.987	564.79
513.193	546.38
513.4	488.65
513.606	507.83
513.813	571.18
514.02	553.36
514.226	629.11
514.433	621.36
514.639	517.51
514.846	591.91
515.052	564.98
515.259	575.25
515.465	559.56
515.672	548.71
515.878	663.21
516.085	558.59
516.291	602.76
516.497	542.9
516.704	546.58
516.91	528.75
517.117	518.48
517.323	509.57
517.529	547.16
517.736	559.56
517.942	584.94
518.148	547.93
518.354	573.12
518.561	569.63
518.767	576.61
518.973	596.18
519.179	627.18
519.386	564.21
519.592	592.69
519.798	580.87
520.004	646.55
520.21	616.13
520.417	642.48
520.623	679.1
520.829	669.8
521.035	654.3
521.241	664.96
521.447	697.12
521.653	768.03
521.859	670.58
522.065	708.94
522.271	745.94
522.477	712.81
522.683	733.16
522.889	749.43
523.095	744.59
523.301	714.94
523.507	691.89
523.713	746.91
523.919	678.52
524.125	752.92
524.331	715.91
524.537	794.96
524.742	734.51
524.948	790.5
525.154	788.18
525.36	869.36
525.566	774.04
525.772	823.25
525.977	738.39
526.183	788.37
526.389	814.72
526.595	779.07
526.8	767.64
527.006	716.49
527.212	724.44
527.417	724.24
527.623	728.12
527.829	775.39
528.034	785.66
528.24	789.34
528.446	765.32
528.651	851.92
528.857	818.79
529.062	895.71
529.268	844.56
529.473	822.86
529.679	821.31
529.884	905.59
530.09	880.21
530.295	887.18
530.501	891.25
530.706	869.55
530.912	838.55
531.117	858.7
531.323	875.17
531.528	949.57
531.733	910.63
531.939	854.44
532.144	942.02
532.35	908.5
532.555	941.82
532.76	909.08
532.966	905.2
533.171	898.62
533.376	895.13
533.581	871.68
533.787	902.49
533.992	906.17
534.197	912.57
534.402	891.06
534.607	923.8
534.813	1017.58
535.018	897.07
535.223	908.5
535.428	926.71
535.633	954.41
535.838	967.01
536.043	963.52
536.249	1048.58
536.454	939.5
536.659	977.47
536.864	921.28
537.069	963.52
537.274	953.25
537.479	991.81
537.684	968.17
537.889	955.58
538.094	1038.7
538.299	992.39
538.504	958.87
538.708	1002.27
538.913	1016.61
539.118	999.56
539.323	1002.08
539.528	965.07
539.733	959.26
539.938	980.96
540.142	1040.05
540.347	1004.01
540.552	985.03
540.757	974.56
540.962	1009.44
541.166	957.13
541.371	964.3
541.576	967.2
541.781	895.71
541.985	993.55
542.19	1010.99
542.395	1055.94
542.599	1055.94
542.804	1019.32
543.008	1048.77
543.213	996.26
543.418	945.7
543.622	1014.48
543.827	968.56
544.031	1072.6
544.236	1047.41
544.44	1010.8
544.645	1084.03
544.849	1002.66
545.054	1044.89
545.258	1117.55
545.463	1078.8
545.667	1016.03
545.872	1058.46
546.076	1069.89
546.281	1048.77
546.485	995.3
546.689	1063.69
546.894	1087.13
547.098	1062.53
547.302	994.52
547.507	1053.03
547.711	1062.53
547.915	1106.31
548.119	1046.06
548.324	1031.33
548.528	1151.46
548.732	1091.59
548.936	1070.28
549.141	1112.71
549.345	1067.76
549.549	1050.51
549.753	1080.54
549.957	1148.36
550.161	1152.62
550.366	1101.08
550.57	1069.89
550.774	1071.24
550.978	1059.04
551.182	1083.06
551.386	1067.95
551.59	1094.88
551.794	1026.3
551.998	1081.9
552.202	1051.29
552.406	1030.95
552.61	1090.81
552.814	1076.28
553.018	1176.64
553.222	1091.78
553.426	1068.53
553.63	1127.24
553.833	1051.87
554.037	1027.26
554.241	1114.45
554.445	1089.26
554.649	1064.66
554.853	1011.76
555.056	1112.32
555.26	1116.39
555.464	1095.66
555.668	1076.48
555.871	1097.59
556.075	1097.59
556.279	1068.92
556.483	1059.04
556.686	1088.68
556.89	1068.34
557.094	1101.66
557.297	1030.17
557.501	1123.36
557.704	997.23
557.908	1086.55
558.112	1018.55
558.315	1113.68
558.519	1060.39
558.722	1054.78
558.926	1038.7
559.129	988.32
559.333	978.83
559.536	1025.91
559.74	972.05
559.943	971.27
560.147	958.1
560.35	970.88
560.553	980.76
560.757	954.22
560.96	1046.06
561.164	1003.63
561.367	1072.41
561.57	986.96
561.774	1007.11
561.977	1008.66
562.18	958.1
562.384	1032.11
562.587	1017.38
562.79	952.67
562.993	971.66
563.197	1006.92
563.4	1039.47
563.603	1021.45
563.806	1076.09
564.009	974.95
564.212	986.58
564.416	934.07
564.619	978.05
564.822	914.12
565.025	979.02
565.228	961
565.431	967.59
565.634	904.82
565.837	937.37
566.04	962.36
566.243	926.52
566.446	866.65
566.649	941.82
566.852	893
567.055	914.31
567.258	944.34
567.461	968.75
567.664	954.41
567.867	857.93
568.07	941.82
568.273	914.7
568.475	934.07
568.678	911.79
568.881	881.76
569.084	907.14
569.287	827.7
569.489	847.08
569.692	889.7
569.895	925.74
570.098	837.97
570.3	832.74
570.503	786.05
570.706	804.84
570.909	791.47
571.111	797.87
571.314	771.32
571.516	813.37
571.719	822.86
571.922	806.59
572.124	791.86
572.327	832.74
572.529	762.02
572.732	765.51
572.935	804.26
573.137	833.32
573.34	786.63
573.542	822.09
573.745	819.95
573.947	798.45
574.15	815.3
574.352	755.63
574.554	859.67
574.757	775.01
574.959	751.95
575.162	765.9
575.364	756.6
575.566	849.6
575.769	741.1
575.971	767.45
576.173	682.98
576.376	778.49
576.578	776.75
576.78	803.87
576.982	699.44
577.185	758.73
577.387	731.02
577.589	693.63
577.791	726.76
577.993	751.76
578.196	726.76
578.398	737.22
578.6	768.61
578.802	700.61
579.004	718.04
579.206	716.49
579.408	750.4
579.61	723.86
579.812	767.84
580.014	695.96
580.216	700.99
580.418	699.83
580.62	680.84
580.822	678.33
581.024	725.02
581.226	771.52
581.428	718.43
581.63	764.74
581.832	670.77
582.034	763.77
582.236	717.85
582.438	731.8
582.64	750.4
582.841	753.31
583.043	787.99
583.245	744.2
583.447	749.24
583.649	720.95
583.85	717.46
584.052	744.01
584.254	690.73
584.456	759.7
584.657	662.63
584.859	694.6
585.061	714.56
585.262	688.4
585.464	647.52
585.666	733.93
585.867	713.59
586.069	753.5
586.27	713.39
586.472	679.68
586.674	690.14
586.875	681.81
587.077	694.21
587.278	703.51
587.48	659.14
587.681	755.24
587.883	678.71
588.084	653.33
588.285	676.97
588.487	667.48
588.688	686.66
588.89	635.89
589.091	611.09
589.292	641.71
589.494	603.54
589.695	607.8
589.896	540.38
590.098	570.8
590.299	628.92
590.5	589.2
590.702	604.51
590.903	613.23
591.104	665.93
591.305	625.63
591.507	698.86
591.708	640.35
591.909	614.78
592.11	701.96
592.311	640.93
592.512	642.09
592.714	592.5
592.915	610.71
593.116	593.66
593.317	632.41
593.518	610.51
593.719	630.08
593.92	638.8
594.121	655.85
594.322	641.13
594.523	619.43
594.724	610.9
594.925	610.71
595.126	618.07
595.327	643.06
595.528	636.28
595.729	655.46
595.929	609.54
596.13	637.44
596.331	620.01
596.532	607.99
596.733	694.6
596.934	639.96
597.135	653.14
597.335	649.84
597.536	618.46
597.737	636.28
597.938	599.28
598.138	635.89
598.339	604.7
598.54	622.33
598.74	618.26
598.941	630.08
599.142	684.33
599.342	639.19
599.543	588.43
599.744	613.81
599.944	645.19
600.145	608.19
600.345	608.96
600.546	678.13
600.746	677.55
600.947	694.02
601.147	635.31
601.348	638.41
601.548	598.11
601.749	626.79
601.949	589.98
602.15	567.89
602.35	621.36
602.551	669.22
602.751	601.99
602.951	608.96
603.152	560.91
603.352	637.64
603.552	609.93
603.753	644.81
603.953	621.36
604.153	620.78
604.354	608.58
604.554	625.04
604.754	601.21
604.954	581.65
605.155	595.98
605.355	592.69
605.555	650.43
605.755	666.89
605.955	619.04
606.155	661.08
606.356	602.18
606.556	636.28
606.756	631.24
606.956	550.06
607.156	626.98
607.356	571.57
607.556	607.03
607.756	617.29
607.956	661.66
608.156	632.21
608.356	564.98
608.556	617.68
608.756	606.64
608.956	569.44
609.156	611.29
609.356	580.68
609.556	553.75
609.755	580.87
609.955	579.9
610.155	589.4
610.355	590.95
610.555	551.23
610.755	585.52
610.954	536.5
611.154	584.75
611.354	613.23
611.554	527.01
611.753	576.22
611.953	511.12
612.153	603.35
612.352	585.71
612.552	519.26
612.752	506.86
612.951	545.8
613.151	581.65
613.351	507.05
613.55	545.03
613.75	551.81
613.949	571.76
614.149	520.23
614.348	542.9
614.548	511.12
614.747	487.1
614.947	497.17
615.146	503.37
615.346	581.45
615.545	519.45
615.745	545.03
615.944	576.03
616.144	527.01
616.343	548.9
616.542	515
616.742	520.23
616.941	539.8
617.14	479.73
617.34	551.81
617.539	522.36
617.738	499.69
617.938	547.93
618.137	534.76
618.336	487.48
618.535	527.4
618.734	525.07
618.934	534.95
619.133	494.65
619.332	535.15
619.531	484.38
619.73	521
619.929	532.24
620.128	545.03
620.328	569.63
620.527	495.43
620.726	505.31
620.925	517.51
621.124	495.82
621.323	521.39
621.522	490.97
621.721	480.32
621.92	451.06
622.119	493.88
622.318	484
622.517	484.38
622.715	487.29
622.914	450.67
623.113	483.22
623.312	435.37
623.511	508.22
623.71	488.65
623.909	464.43
624.107	513.45
624.306	451.64
624.505	448.54
624.704	435.75
624.902	473.92
625.101	520.23
625.3	468.3
625.499	433.62
625.697	435.37
625.896	444.28
626.095	497.56
626.293	420.64
626.492	465.59
626.69	505.12
626.889	438.66
627.088	479.73
627.286	431.68
627.485	421.61
627.683	454.16
627.882	486.52
628.08	415.8
628.279	455.71
628.477	517.9
628.676	385.77
628.874	444.47
629.073	433.04
629.271	389.64
629.469	452.61
629.668	456.87
629.866	452.22
630.065	404.95
630.263	463.85
630.461	447.57
630.66	441.37
630.858	475.86
631.056	498.53
631.254	461.33
631.453	445.44
631.651	489.23
631.849	431.3
632.047	445.25
632.245	431.49
632.444	461.13
632.642	463.85
632.84	452.22
633.038	442.34
633.236	400.69
633.434	430.13
633.632	402.24
633.83	426.26
634.028	475.67
634.227	431.88
634.425	496.78
634.623	446.8
634.821	447.96
635.019	445.63
635.216	404.17
635.414	450.87
635.612	444.28
635.81	417.54
636.008	489.03
636.206	438.85
636.404	459.78
636.602	394.87
636.8	438.27
636.997	484.38
637.195	446.6
637.393	460.17
637.591	458.03
637.789	456.87
637.986	422.19
638.184	462.3
638.382	483.8
638.58	459
638.777	498.72
638.975	446.99
639.173	453.58
639.37	475.86
639.568	440.98
639.765	460.94
639.963	429.17
640.161	488.84
640.358	464.82
640.556	418.51
640.753	405.34
640.951	406.11
641.148	453.19
641.346	410.18
641.543	440.79
641.741	421.8
641.938	406.89
642.136	458.62
642.333	409.99
642.531	477.02
642.728	462.88
642.925	431.68
643.123	415.02
643.32	451.45
643.517	433.62
643.715	404.95
643.912	424.52
644.109	445.63
644.306	431.1
644.504	390.8
644.701	408.82
644.898	461.72
645.095	413.28
645.293	395.84
645.49	436.92
645.687	436.53
645.884	462.88
646.081	368.14
646.278	384.99
646.475	415.41
646.672	368.72
646.87	423.16
647.067	424.32
647.264	388.67
647.461	361.55
647.658	367.55
647.855	409.6
648.052	362.32
648.249	316.02
648.446	384.41
648.642	353.6
648.839	340.62
649.036	349.92
649.233	319.7
649.43	344.11
649.627	314.86
649.824	356.51
650.021	365.42
650.217	339.46
650.414	365.62
650.611	390.61
650.808	383.83
651.004	379.18
651.201	405.53
651.398	396.81
651.595	397
651.791	349.15
651.988	402.43
652.185	349.15
652.381	389.84
652.578	322.41
652.775	368.14
652.971	354.77
653.168	369.1
653.364	377.05
653.561	304.39
653.757	366.2
653.954	359.42
654.15	327.45
654.347	424.71
654.543	351.67
654.74	324.16
654.936	310.4
655.133	329.19
655.329	338.3
655.525	321.44
655.722	370.65
655.918	307.3
656.115	382.28
656.311	322.99
656.507	254.79
656.704	240.65
656.9	293.54
657.096	291.8
657.292	297.42
657.489	325.71
657.685	316.21
657.881	285.99
658.077	324.54
658.273	293.93
658.47	378.02
658.666	309.62
658.862	331.32
659.058	288.12
659.254	358.45
659.45	299.94
659.646	330.36
659.842	312.14
660.038	342.17
660.234	298.39
660.43	322.02
660.626	362.71
660.822	349.73
661.018	353.22
661.214	334.81
661.41	309.82
661.606	360.97
661.802	373.17
661.998	314.66
662.194	294.32
662.39	344.11
662.586	364.07
662.781	333.46
662.977	354.77
663.173	310.98
663.369	311.56
663.564	331.71
663.76	341.79
663.956	323.96
664.152	347.79
664.347	275.52
664.543	291.99
664.739	311.76
664.934	241.43
665.13	247.43
665.326	328.42
665.521	328.22
665.717	266.61
665.912	292.96
666.108	219.34
666.304	288.89
666.499	315.82
666.695	250.34
666.89	304.01
667.086	338.69
667.281	319.51
667.477	351.86
667.672	312.92
667.867	275.72
668.063	325.71
668.258	270.1
668.454	300.52
668.649	356.12
668.844	282.31
669.04	317.37
669.235	275.14
669.43	263.9
669.626	260.02
669.821	281.72
670.016	263.32
670.211	312.92
670.407	301.1
670.602	286.18
670.797	278.62
670.992	327.84
671.187	273.59
671.382	304.59
671.578	275.33
671.773	330.36
671.968	254.41
672.163	282.11
672.358	307.11
672.553	262.16
672.748	273.2
672.943	340.82
673.138	290.44
673.333	314.47
673.528	242.2
673.723	296.26
673.918	279.79
674.113	245.69
674.308	354.38
674.503	300.52
674.698	283.66
674.892	297.22
675.087	322.22
675.282	302.65
675.477	237.74
675.672	284.82
675.867	262.16
676.061	267.58
676.256	252.86
676.451	243.94
676.646	301.87
676.84	258.47
677.035	257.7
677.23	239.1
677.424	299.94
677.619	287.34
677.814	307.11
678.008	319.7
678.203	235.42
678.397	260.02
678.592	300.32
678.787	340.43
678.981	274.75
679.176	260.61
679.37	285.6
679.565	266.22
679.759	260.22
679.954	275.72
680.148	304.39
680.342	319.31
680.537	293.93
680.731	296.84
680.926	320.67
681.12	312.53
681.314	243.56
681.509	266.61
681.703	243.36
681.897	298.97
682.092	298.19
682.286	289.09
682.48	347.99
682.674	300.91
682.869	275.14
683.063	291.41
683.257	324.74
683.451	250.53
683.645	305.94
683.839	301.49
684.034	271.26
684.228	348.95
684.422	259.83
684.616	257.51
684.81	301.1
685.004	264.09
685.198	254.41
685.392	315.82
685.586	244.72
685.78	300.91
685.974	308.27
686.168	293.74
686.362	322.61
686.556	264.67
686.75	250.14
686.944	257.31
687.138	304.97
687.331	208.49
687.525	237.74
687.719	190.47
687.913	271.46
688.107	250.34
688.301	248.98
688.494	255.37
688.688	240.07
688.882	218.37
689.076	215.27
689.269	233.68
689.463	338.69
689.657	258.47
689.85	282.11
690.044	284.82
690.238	249.37
690.431	246.27
690.625	227.48
690.818	274.17
691.012	296.26
691.205	298.97
691.399	250.34
691.593	297.81
691.786	341.59
691.98	342.37
692.173	337.33
692.366	324.54
692.56	335.59
692.753	371.04
692.947	279.59
693.14	357.67
693.333	353.6
693.527	322.22
693.72	343.53
693.914	326.09
694.107	315.05
694.3	335.97
694.493	343.53
694.687	364.07
694.88	317.76
695.073	389.06
695.266	363.87
695.46	341.98
695.653	399.72
695.846	425.49
696.039	316.6
696.232	376.85
696.425	391
696.618	415.41
696.812	383.05
697.005	472.76
697.198	513.45
697.391	437.11
697.584	447.57
697.777	502.6
697.97	464.04
698.163	485.16
698.356	474.12
698.549	544.64
698.742	527.4
698.935	479.54
699.127	515
699.32	493.49
699.513	460.55
699.706	537.66
699.899	529.53
700.092	515.38
700.285	558.98
700.477	511.51
700.67	555.3
700.863	568.86
701.056	643.26
701.248	575.83
701.441	617.68
701.634	606.64
701.826	657.59
702.019	569.25
702.212	617.88
702.404	588.23
702.597	580.68
702.79	630.08
702.982	624.66
703.175	690.92
703.367	672.9
703.56	651.98
703.752	737.42
703.945	713.2
704.137	735.87
704.33	728.31
704.522	734.71
704.715	753.5
704.907	773.07
705.1	761.25
705.292	817.63
705.484	768.42
705.677	814.53
705.869	832.94
706.061	862.97
706.254	860.64
706.446	811.82
706.638	849.79
706.831	898.42
707.023	850.37
707.215	984.25
707.407	926.71
707.599	927.87
707.792	980.96
707.984	972.63
708.176	997.04
708.368	935.62
708.56	967.01
708.752	999.17
708.944	945.31
709.136	1007.7
709.329	1013.9
709.521	1110.77
709.713	1078.41
709.905	1084.03
710.097	1111.93
710.289	1062.53
710.481	1080.74
710.672	1139.44
710.864	1143.51
711.056	1167.34
711.248	1159.59
711.44	1210.55
711.632	1134.21
711.824	1174.51
712.016	1250.27
712.207	1244.07
712.399	1242.13
712.591	1259.76
712.783	1283.98
712.975	1308.39
713.166	1226.05
713.358	1286.89
713.55	1349.66
713.741	1347.72
713.933	1327.77
714.125	1355.08
714.316	1327.18
714.508	1413.6
714.7	1391.7
714.891	1407.01
715.083	1464.36
715.274	1418.83
715.466	1403.52
715.657	1450.02
715.849	1355.67
716.04	1449.83
716.232	1371.55
716.423	1452.93
716.615	1389.38
716.806	1331.64
716.998	1319.43
717.189	1293.47
717.381	1236.9
717.572	1214.23
717.763	1259.18
717.955	1249.3
718.146	1219.27
718.337	1180.71
718.528	1180.32
718.72	1106.51
718.911	1168.51
719.102	1168.31
719.293	1186.91
719.485	1175.67
719.676	1169.86
719.867	1157.07
720.058	1134.6
720.249	1171.61
720.44	1202.99
720.632	1229.15
720.823	1319.05
721.014	1378.33
721.205	1373.49
721.396	1414.95
721.587	1559.49
721.778	1566.85
721.969	1560.26
722.16	1646.48
722.351	1609.67
722.542	1728.44
722.733	1723.2
722.924	1661.2
723.115	1743.55
723.305	1725.92
723.496	1769.12
723.687	1651.32
723.878	1708.09
724.069	1630.98
724.26	1662.75
724.45	1596.3
724.641	1612.19
724.832	1637.18
725.023	1659.07
725.213	1652.87
725.404	1589.32
725.595	1642.41
725.785	1612.57
725.976	1673.99
726.167	1664.3
726.357	1698.99
726.548	1814.85
726.739	1715.84
726.929	1775.9
727.12	1828.99
727.31	1837.51
727.501	1782.88
727.691	1793.53
727.882	1827.44
728.072	1853.01
728.263	1860.18
728.453	1904.36
728.644	1916.76
728.834	1912.5
729.024	1849.14
729.215	1832.09
729.405	1915.4
729.596	1984.96
729.786	2006.46
729.976	2012.66
730.167	2030.68
730.357	1979.14
730.547	1994.84
730.737	2025.26
730.928	2111.86
731.118	2089.19
731.308	2069.43
731.498	2078.92
731.688	2211.06
731.879	2196.14
732.069	2277.71
732.259	2286.23
732.449	2270.73
732.639	2380.59
732.829	2391.44
733.019	2414.11
733.209	2493.74
733.399	2547.21
733.589	2565.81
733.779	2602.24
733.969	2579.18
734.159	2674.12
734.349	2685.74
734.539	2750.65
734.729	2732.63
734.919	2771.76
735.109	2780.1
735.299	2773.12
735.488	2790.36
735.678	2799.28
735.868	2823.11
736.058	2790.36
736.248	2798.11
736.437	2793.46
736.627	2798.69
736.817	2868.44
737.007	2878.52
737.196	2903.12
737.386	2883.75
737.576	2872.13
737.765	2923.47
737.955	2929.86
738.144	3033.52
738.334	2981.2
738.524	2951.37
738.713	2956.02
738.903	2999.22
739.092	3033.71
739.282	3020.15
739.471	3038.55
739.661	3061.22
739.85	3086.6
740.04	3094.16
740.229	3109.27
740.419	3134.07
740.608	3214.09
740.797	3138.91
740.987	3230.75
741.176	3204.79
741.365	3148.6
741.555	3176.11
741.744	3262.53
741.933	3197.04
742.123	3275.89
742.312	3287.71
742.501	3258.84
742.69	3294.3
742.88	3241.41
743.069	3348.16
743.258	3305.15
743.447	3375.29
743.636	3398.92
743.825	3332.86
744.014	3336.15
744.204	3379.16
744.393	3323.17
744.582	3434.19
744.771	3482.24
744.96	3389.24
745.149	3403.96
745.338	3396.41
745.527	3428.18
745.716	3428.18
745.905	3401.44
746.094	3457.24
746.283	3454.34
746.471	3438.64
746.66	3519.43
746.849	3515.95
747.038	3493.47
747.227	3432.64
747.416	3480.88
747.604	3445.81
747.793	3451.04
747.982	3494.63
748.171	3463.44
748.359	3516.14
748.548	3524.28
748.737	3498.7
748.926	3484.75
749.114	3398.15
749.303	3518.08
749.491	3504.32
749.68	3428.37
749.869	3528.73
750.057	3504.9
750.246	3476.62
750.434	3530.67
750.623	3491.34
750.811	3433.41
751	3547.53
751.188	3493.86
751.377	3510.33
751.565	3494.25
751.754	3476.23
751.942	3461.31
752.131	3480.69
752.319	3471
752.507	3414.62
752.696	3458.21
752.884	3487.85
753.072	3475.45
753.261	3483.4
753.449	3482.43
753.637	3414.42
753.825	3539.78
754.014	3467.51
754.202	3526.8
754.39	3500.45
754.578	3493.67
754.766	3433.99
754.955	3427.6
755.143	3540.36
755.331	3482.62
755.519	3428.76
755.707	3477.59
755.895	3437.29
756.083	3459.37
756.271	3396.79
756.459	3423.34
756.647	3442.32
756.835	3419.65
757.023	3373.74
757.211	3425.08
757.399	3398.34
757.587	3409.97
757.775	3369.09
757.963	3347.77
758.151	3436.12
758.339	3355.72
758.526	3318.71
758.714	3376.06
758.902	3236.56
759.09	3128.65
759.278	2906.03
759.465	2721.58
759.653	2398.99
759.841	2155.65
760.028	1839.45
760.216	1567.04
760.404	1488.58
760.591	1207.45
760.779	1033.08
760.967	907.53
761.154	746.72
761.342	793.02
761.529	798.64
761.717	849.6
761.905	810.85
762.092	889.51
762.28	815.89
762.467	826.35
762.655	733.54
762.842	790.5
763.029	810.07
763.217	786.44
763.404	795.15
763.592	840.88
763.779	777.33
763.966	825.96
764.154	870.91
764.341	929.62
764.528	947.63
764.716	1034.63
764.903	1051.68
765.09	1124.33
765.277	1181.49
765.465	1303.74
765.652	1363.61
765.839	1469.59
766.026	1598.43
766.213	1645.51
766.4	1739.48
766.588	1939.43
766.775	1964.03
766.962	2115.93
767.149	2155.26
767.336	2296.89
767.523	2264.92
767.71	2410.04
767.897	2511.17
768.084	2571.24
768.271	2622
768.458	2682.64
768.645	2717.9
768.832	2756.07
769.019	2788.43
769.206	2783
769.392	2880.65
769.579	2929.28
769.766	2961.06
769.953	2960.67
770.14	3000.58
770.327	2972.68
770.513	3014.14
770.7	3080.21
770.887	3008.91
771.073	3023.05
771.26	3036.81
771.447	3046.89
771.634	3013.37
771.82	3131.55
772.007	3031.77
772.193	3005.23
772.38	3103.07
772.567	3006
772.753	3071.88
772.94	3103.85
773.126	3089.9
773.313	3088.73
773.499	3102.88
773.686	3090.09
773.872	3066.45
774.059	3067.62
774.245	3037.97
774.432	3050.37
774.618	2951.56
774.804	3020.73
774.991	2970.74
775.177	3065.48
775.363	3046.11
775.55	3024.41
775.736	2958.92
775.922	3026.54
776.109	2980.24
776.295	3002.71
776.481	3033.52
776.667	3031.97
776.853	2957.37
777.04	2993.8
777.226	2985.08
777.412	3059.87
777.598	2954.47
777.784	2989.73
777.97	2963.38
778.156	2975.97
778.342	2985.85
778.528	2949.43
778.715	2890.14
778.901	2892.86
779.087	2934.32
779.272	2898.09
779.458	2898.67
779.644	2926.18
779.83	2877.16
780.016	2962.22
780.202	2896.15
780.388	2874.84
780.574	2787.65
780.76	2841.32
780.946	2890.72
781.131	2895.96
781.317	2820.2
781.503	2831.24
781.689	2849.46
781.874	2941.87
782.06	2847.33
782.246	2832.02
782.432	2840.35
782.617	2804.7
782.803	2885.49
782.989	2782.61
783.174	2780.29
783.36	2757.23
783.545	2736.89
783.731	2736.5
783.916	2698.14
784.102	2769.44
784.288	2747.16
784.473	2727.2
784.659	2703.37
784.844	2754.91
785.029	2718.29
785.215	2724.3
785.4	2643.31
785.586	2762.66
785.771	2636.53
785.956	2700.08
786.142	2683.61
786.327	2655.52
786.512	2703.56
786.698	2665.2
786.883	2614.44
787.068	2616.77
787.254	2646.99
787.439	2622.19
787.624	2610.57
787.809	2617.93
787.994	2622
788.18	2642.34
788.365	2574.34
788.55	2607.08
788.735	2568.14
788.92	2586.15
789.105	2572.2
789.29	2567.17
789.475	2496.64
789.66	2511.56
789.845	2476.3
790.03	2496.06
790.215	2535.78
790.4	2522.61
790.585	2545.47
790.77	2498
790.955	2439.68
791.14	2461.77
791.325	2537.72
791.51	2395.12
791.695	2451.31
791.879	2440.46
792.064	2440.26
792.249	2483.86
792.434	2465.84
792.618	2459.25
792.803	2492.96
792.988	2431.74
793.173	2463.32
793.357	2481.34
793.542	2436.19
793.727	2459.25
793.911	2496.06
794.096	2467
794.281	2488.7
794.465	2587.51
794.65	2484.05
794.834	2540.62
795.019	2515.63
795.203	2529.19
795.388	2556.51
795.572	2571.04
795.757	2510.98
795.941	2513.31
796.126	2472.42
796.31	2435.81
796.494	2466.61
796.679	2441.23
796.863	2454.21
797.048	2505.94
797.232	2506.91
797.416	2524.54
797.601	2499.55
797.785	2548.37
797.969	2514.08
798.153	2505.36
798.338	2523.38
798.522	2538.49
798.706	2549.34
798.89	2540.82
799.074	2647.57
799.258	2579.76
799.443	2537.33
799.627	2551.67
799.811	2596.23
799.995	2542.95
800.179	2500.32
800.363	2498.19
800.547	2526.67
800.731	2541.01
800.915	2465.84
801.099	2470.1
801.283	2532.1
801.467	2526.29
801.651	2523.96
801.835	2548.57
802.019	2527.25
802.202	2495.48
802.386	2486.76
802.57	2474.17
802.754	2484.82
802.938	2491.61
803.121	2460.8
803.305	2530.55
803.489	2515.24
803.673	2519.31
803.856	2517.37
804.04	2506.91
804.224	2507.3
804.407	2517.18
804.591	2454.41
804.775	2481.92
804.958	2520.86
805.142	2576.47
805.326	2545.85
805.509	2507.49
805.693	2571.43
805.876	2570.07
806.06	2514.27
806.243	2567.36
806.427	2580.15
806.61	2619.48
806.794	2536.75
806.977	2565.42
807.16	2547.99
807.344	2548.95
807.527	2491.99
807.71	2499.36
807.894	2531.9
808.077	2572.4
808.26	2516.79
808.444	2494.51
808.627	2522.8
808.81	2465.45
808.993	2421.28
809.177	2416.04
809.36	2445.49
809.543	2477.85
809.726	2345.13
809.909	2354.24
810.092	2347.65
810.276	2319.75
810.459	2343.58
810.642	2359.28
810.825	2298.63
811.008	2325.37
811.191	2251.94
811.374	2239.93
811.557	2279.45
811.74	2325.56
811.923	2212.22
812.106	2177.15
812.289	2178.9
812.472	2177.93
812.654	2145.96
812.837	2156.62
813.02	2063.42
813.203	2084.16
813.386	1977.21
813.569	1964.23
813.751	1869.68
813.934	1953.96
814.117	1916.95
814.3	1853.6
814.482	1828.8
814.665	1772.42
814.848	1792.37
815.03	1703.83
815.213	1708.87
815.396	1694.34
815.578	1666.44
815.761	1624.39
815.943	1692.4
816.126	1614.71
816.309	1587
816.491	1514.54
816.674	1498.26
816.856	1492.45
817.039	1544.38
817.221	1573.05
817.403	1530.23
817.586	1553.48
817.768	1554.45
817.951	1506.59
818.133	1451.18
818.315	1497.1
818.498	1539.92
818.68	1567.82
818.862	1587.58
819.045	1587
819.227	1593.78
819.409	1544.57
819.591	1569.17
819.774	1587.97
819.956	1532.17
820.138	1613.74
820.32	1584.67
820.502	1681.35
820.684	1730.76
820.866	1744.13
821.048	1793.73
821.231	1797.99
821.413	1766.8
821.595	1764.86
821.777	1791.02
821.959	1776.68
822.141	1818.92
822.323	1682.9
822.505	1637.57
822.686	1569.37
822.868	1497.49
823.05	1413.01
823.232	1364.38
823.414	1315.95
823.596	1400.81
823.778	1369.42
823.96	1408.56
824.141	1400.42
824.323	1421.54
824.505	1548.44
824.687	1550.77
824.868	1604.44
825.05	1686
825.232	1727.66
825.413	1788.11
825.595	1721.07
825.777	1734.44
825.958	1729.99
826.14	1707.9
826.321	1766.99
826.503	1732.89
826.685	1766.22
826.866	1786.17
827.048	1740.83
827.229	1699.18
827.411	1649.39
827.592	1600.95
827.773	1634.47
827.955	1574.79
828.136	1577.12
828.318	1570.34
828.499	1566.27
828.68	1530.62
828.862	1547.67
829.043	1550.38
829.224	1571.89
829.406	1524.42
829.587	1519.19
829.768	1542.83
829.949	1549.61
830.131	1536.04
830.312	1626.33
830.493	1525.39
830.674	1561.43
830.855	1550.58
831.036	1519.19
831.218	1630.59
831.399	1646.09
831.58	1558.13
831.761	1603.86
831.942	1601.34
832.123	1541.66
832.304	1527.71
832.485	1536.04
832.666	1560.07
832.847	1590.49
833.028	1528.68
833.209	1553.68
833.389	1544.18
833.57	1487.8
833.751	1484.12
833.932	1586.81
834.113	1569.95
834.294	1519.58
834.475	1592.81
834.655	1595.14
834.836	1631.56
835.017	1612.38
835.198	1540.89
835.378	1578.86
835.559	1628.46
835.74	1590.68
835.92	1602.89
836.101	1583.9
836.281	1630.4
836.462	1619.55
836.643	1654.81
836.823	1630.59
837.004	1634.86
837.184	1702.86
837.365	1643.19
837.545	1663.34
837.726	1633.89
837.906	1630.21
838.087	1639.51
838.267	1617.61
838.448	1590.49
838.628	1655.78
838.808	1612.38
838.989	1680.77
839.169	1621.29
839.349	1648.42
839.53	1699.37
839.71	1665.66
839.89	1627.11
840.07	1698.02
840.251	1622.26
840.431	1687.55
840.611	1671.28
840.791	1606.76
840.971	1662.95
841.151	1627.49
841.332	1595.91
841.512	1667.6
841.692	1583.71
841.872	1662.17
842.052	1590.87
842.232	1672.44
842.412	1589.71
842.592	1588.36
842.772	1616.84
842.952	1655
843.132	1591.84
843.312	1601.14
843.492	1594.17
843.672	1668.37
843.851	1591.07
844.031	1593.59
844.211	1597.66
844.391	1602.69
844.571	1575.96
844.751	1615.48
844.93	1638.54
845.11	1584.87
845.29	1607.34
845.47	1625.94
845.649	1599.59
845.829	1617.81
846.009	1556.19
846.188	1580.99
846.368	1583.71
846.547	1552.51
846.727	1608.31
846.907	1569.17
847.086	1571.31
847.266	1613.74
847.445	1607.73
847.625	1548.25
847.804	1512.79
847.984	1590.87
848.163	1542.05
848.343	1505.82
848.522	1554.45
848.701	1558.13
848.881	1520.74
849.06	1546.12
849.239	1555.81
849.419	1546.31
849.598	1453.51
849.777	1470.56
849.957	1468.23
850.136	1409.72
850.315	1412.43
850.494	1424.25
850.674	1437.43
850.853	1447.89
851.032	1425.8
851.211	1531.39
851.39	1478.5
851.569	1402.16
851.748	1415.73
851.927	1476.18
852.107	1449.25
852.286	1390.73
852.465	1392.67
852.644	1457.19
852.823	1462.23
853.002	1445.56
853.181	1438.78
853.359	1426
853.538	1399.65
853.717	1409.72
853.896	1358.77
854.075	1316.33
854.254	1269.84
854.433	1243.29
854.611	1258.02
854.79	1220.04
854.969	1248.91
855.148	1318.85
855.327	1238.84
855.505	1296.19
855.684	1266.54
855.863	1297.74
856.041	1278.55
856.22	1347.53
856.399	1292.89
856.577	1380.08
856.756	1366.13
856.934	1464.16
857.113	1445.18
857.291	1409.14
857.47	1372.33
857.648	1369.81
857.827	1363.42
858.005	1402.36
858.184	1370.97
858.362	1441.88
858.541	1372.33
858.719	1389.77
858.898	1344.43
859.076	1351.21
859.254	1427.74
859.433	1349.27
859.611	1336.87
859.789	1272.94
859.967	1392.48
860.146	1406.23
860.324	1298.7
860.502	1365.93
860.68	1301.61
860.859	1302.77
861.037	1323.31
861.215	1343.07
861.393	1314.01
861.571	1334.74
861.749	1310.52
861.927	1343.27
862.105	1316.33
862.283	1292.5
862.461	1257.24
862.639	1283.59
862.817	1287.47
862.995	1296.77
863.173	1294.25
863.351	1288.24
863.529	1316.33
863.707	1340.55
863.885	1321.95
864.063	1257.82
864.241	1276.23
864.418	1328.15
864.596	1265.19
864.774	1253.75
864.952	1254.72
865.129	1264.02
865.307	1240
865.485	1232.05
865.663	1268.29
865.84	1204.93
866.018	1221.2
866.196	1087.13
866.373	1153.97
866.551	1080.93
866.728	1040.83
866.906	1107.48
867.084	1111.16
867.261	1143.51
867.439	1148.74
867.616	1182.07
867.794	1164.82
867.971	1143.9
868.149	1194.66
868.326	1243.87
868.503	1184.59
868.681	1172.96
868.858	1163.47
869.035	1150.49
869.213	1192.92
869.39	1185.17
869.567	1249.3
869.745	1179.74
869.922	1197.37
870.099	1223.14
870.276	1210.74
870.454	1184.2
870.631	1222.75
870.808	1158.62
870.985	1197.37
871.162	1244.26
871.339	1208.81
871.517	1133.44
871.694	1130.34
871.871	1168.89
872.048	1177.81
872.225	1134.21
872.402	1164.05
872.579	1107.48
872.756	1153.78
872.933	1096.63
873.11	1144.48
873.287	1176.45
873.463	1141.57
873.64	1085.39
873.817	1157.27
873.994	1151.84
874.171	1115.61
874.348	1134.6
874.524	1061.75
874.701	1078.61
874.878	1034.24
875.055	1107.28
875.231	1085.97
875.408	1117.16
875.585	1057.1
875.762	1114.45
875.938	1046.06
876.115	1036.95
876.291	1035.98
876.468	1046.06
876.645	1061.94
876.821	1071.83
876.998	1054.97
877.174	1062.33
877.351	1048.19
877.527	1056.52
877.704	1053.81
877.88	1059.62
878.057	1032.3
878.233	1058.07
878.409	1011.18
878.586	1065.43
878.762	1049.74
878.938	1019.32
879.115	1008.28
879.291	1008.66
879.467	978.25
879.644	1028.23
879.82	1057.29
879.996	985.03
880.172	961.58
880.349	1031.53
880.525	1024.36
880.701	974.37
880.877	960.61
881.053	1015.25
881.229	1004.4
881.405	1033.08
881.581	1007.89
881.757	1004.6
881.933	998.78
882.109	1015.64
882.285	989.68
882.461	944.92
882.637	1004.98
882.813	954.41
882.989	982.9
883.165	1024.55
883.341	992.78
883.517	1041.02
883.693	998.78
883.869	992.97
884.044	964.49
884.22	1011.57
884.396	1012.73
884.572	1027.26
884.747	1014.48
884.923	1015.45
885.099	1034.05
885.275	1028.81
885.45	981.93
885.626	967.78
885.801	934.46
885.977	1004.01
886.153	927.87
886.328	962.55
886.504	947.63
886.679	979.6
886.855	962.55
887.03	989.48
887.206	1015.64
887.381	974.56
887.557	972.82
887.732	987.16
887.908	1045.28
888.083	1000.53
888.258	991.23
888.434	958.29
888.609	954.22
888.784	1004.4
888.96	998.4
889.135	953.64
889.31	938.33
889.485	971.08
889.661	1006.53
889.836	1005.18
890.011	1002.46
890.186	966.62
890.361	951.51
890.537	987.16
890.712	998.2
890.887	1010.99
891.062	983.09
891.237	1045.86
891.412	939.69
891.587	991.81
891.762	1009.25
891.937	1029.78
892.112	931.75
892.287	943.76
892.462	921.28
892.637	921.48
892.812	878.66
892.987	886.41
893.161	867.42
893.336	888.73
893.511	881.76
893.686	891.06
893.861	849.79
894.035	894.35
894.21	869.36
894.385	856.96
894.56	890.67
894.734	811.24
894.909	796.12
895.084	817.24
895.258	801.74
895.433	805.04
895.608	787.21
895.782	738.77
895.957	769.19
896.131	771.91
896.306	680.07
896.48	707.77
896.655	706.42
896.829	635.89
897.004	640.74
897.178	677.36
897.353	621.94
897.527	690.53
897.701	645.39
897.876	613.61
898.05	677.36
898.224	657.79
898.399	686.85
898.573	647.13
898.747	535.15
898.921	590.75
899.096	516.74
899.27	528.17
899.444	560.53
899.618	555.1
899.792	580.29
899.967	555.49
900.141	613.23
900.315	542.31
900.489	554.91
900.663	566.92
900.837	554.13
901.011	520.81
901.185	604.12
901.359	557.04
901.533	537.28
901.707	561.3
901.881	571.57
902.055	544.83
902.229	575.45
902.403	611.09
902.576	564.79
902.75	574.28
902.924	710.49
903.098	611.09
903.272	669.99
903.446	698.28
903.619	678.33
903.793	759.51
903.967	680.84
904.14	753.69
904.314	727.92
904.488	727.15
904.661	753.89
904.835	705.26
905.009	739.74
905.182	788.76
905.356	754.66
905.529	728.31
905.703	717.85
905.876	681.81
906.05	635.31
906.223	651.78
906.397	588.81
906.57	606.83
906.744	556.26
906.917	557.81
907.09	586.3
907.264	566.73
907.437	524.88
907.61	515
907.784	526.23
907.957	547.74
908.13	503.57
908.304	532.24
908.477	481.48
908.65	492.33
908.823	484.58
908.996	564.98
909.17	503.57
909.343	483.8
909.516	478.96
909.689	472.37
909.862	471.98
910.035	504.73
910.208	475.08
910.381	489.62
910.554	576.8
910.727	498.33
910.9	482.06
911.073	493.68
911.246	563.82
911.419	531.27
911.592	514.42
911.765	511.9
911.938	462.49
912.11	498.53
912.283	507.25
912.456	539.41
912.629	476.63
912.802	471.02
912.974	449.9
913.147	409.6
913.32	365.81
913.493	406.3
913.665	421.8
913.838	441.95
914.01	409.21
914.183	452.03
914.356	439.82
914.528	473.53
914.701	488.07
914.873	456.29
915.046	432.46
915.218	404.95
915.391	333.07
915.563	345.66
915.736	433.04
915.908	472.37
916.081	419.29
916.253	412.89
916.425	424.9
916.598	450.09
916.77	432.85
916.942	382.47
917.115	348.95
917.287	413.67
917.459	398.17
917.632	356.32
917.804	325.71
917.976	399.14
918.148	399.72
918.32	425.49
918.493	442.92
918.665	474.5
918.837	437.11
919.009	494.65
919.181	517.71
919.353	473.15
919.525	457.84
919.697	469.08
919.869	469.66
920.041	499.5
920.213	551.23
920.385	524.88
920.557	463.27
920.729	486.9
920.901	456.48
921.073	494.27
921.244	465.2
921.416	504.53
921.588	437.11
921.76	453.19
921.932	501.82
922.103	468.69
922.275	437.11
922.447	465.01
922.619	408.44
922.79	464.43
922.962	442.34
923.134	449.12
923.305	410.76
923.477	375.3
923.648	369.3
923.82	390.03
923.991	369.3
924.163	362.52
924.335	390.8
924.506	375.89
924.677	449.7
924.849	380.92
925.02	376.27
925.192	432.07
925.363	392.74
925.535	424.71
925.706	391
925.877	422.97
926.049	409.79
926.22	401.85
926.391	415.6
926.562	412.5
926.734	361.74
926.905	393.71
927.076	335.01
927.247	393.71
927.419	306.52
927.59	297.03
927.761	340.04
927.932	314.47
928.103	304.97
928.274	287.15
928.445	280.17
928.616	280.37
928.787	272.04
928.958	296.26
929.129	287.34
929.3	270.87
929.471	225.15
929.642	177.1
929.813	180.78
929.984	260.8
930.155	165.09
930.326	197.64
930.496	188.92
930.667	114.13
930.838	158.89
931.009	115.3
931.18	166.25
931.35	120.91
931.521	162.18
931.692	97.86
931.863	97.47
932.033	135.83
932.204	116.07
932.374	115.3
932.545	74.42
932.716	149.01
932.886	128.28
933.057	34.89
933.227	80.42
933.398	145.13
933.568	61.43
933.739	31.4
933.909	41.87
934.08	76.93
934.25	25.78
934.421	33.92
934.591	74.03
934.761	51.17
934.932	27.72
935.102	46.13
935.272	40.32
935.443	43.61
935.613	18.03
935.783	42.64
935.953	29.08
936.123	174.39
936.294	35.47
936.464	74.03
936.634	65.7
936.804	-12.38
936.974	17.07
937.144	64.92
937.314	28.88
937.484	44.77
937.655	27.33
937.825	50.78
937.995	17.65
938.165	71.51
938.334	36.25
938.504	73.45
938.674	42.25
938.844	44.19
939.014	96.89
939.184	98.44
939.354	136.22
939.524	136.41
939.694	66.47
939.863	64.15
940.033	136.22
940.203	154.24
940.373	97.08
940.542	119.17
940.712	88.36
940.882	133.7
941.051	122.27
941.221	112.97
941.391	144.16
941.56	85.07
941.73	87.59
941.899	208.88
942.069	93.21
942.238	106.96
942.408	79.26
942.577	110.26
942.747	80.03
942.916	27.53
943.086	52.52
943.255	115.1
943.425	105.22
943.594	55.82
943.763	22.68
943.933	30.82
944.102	-11.22
944.271	73.25
944.441	67.44
944.61	62.6
944.779	57.37
944.948	164.9
945.117	33.34
945.287	63.57
945.456	25.01
945.625	77.52
945.794	79.07
945.963	39.93
946.132	90.88
946.301	56.59
946.47	79.26
946.639	8.73
946.808	75.97
946.977	111.03
947.146	130.02
947.315	41.67
947.484	106.77
947.653	95.73
947.822	46.13
947.991	50.58
948.16	142.81
948.329	111.03
948.498	78.68
948.666	65.7
948.835	89.72
949.004	17.45
949.173	50
949.341	76.35
949.51	72.09
949.679	118.01
949.847	114.91
950.016	137.19
950.185	105.61
950.353	53.88
950.522	60.47
950.69	92.24
950.859	72.48
951.028	115.68
951.196	94.95
951.365	57.95
951.533	65.7
951.701	112.78
951.87	85.46
952.038	58.72
952.207	79.26
952.375	132.54
952.543	66.28
952.712	82.16
952.88	53.68
953.048	119.56
953.217	83.33
953.385	78.87
953.553	122.66
953.721	25.98
953.89	50
954.058	46.71
954.226	66.67
954.394	64.53
954.562	19.39
954.73	71.12
954.898	68.99
955.067	80.42
955.235	41.87
955.403	105.41
955.571	131.38
955.739	92.63
955.907	54.07
956.075	61.43
956.243	45.16
956.41	109.1
956.578	30.43
956.746	45.93
956.914	45.35
957.082	100.38
957.25	97.28
957.418	46.13
957.585	111.42
957.753	93.79
957.921	31.79
958.089	70.73
958.256	116.46
958.424	91.66
958.592	100.18
958.759	44.77
958.927	89.72
959.095	58.53
959.262	62.98
959.43	91.46
959.597	39.73
959.765	71.51
959.932	40.51
960.1	94.56
960.267	92.24
960.435	65.5
960.602	90.11
960.77	50.58
960.937	70.73
961.104	84.88
961.272	29.66
961.439	48.07
961.606	71.32
961.774	95.34
961.941	56.4
962.108	98.25
962.275	80.23
962.443	137.96
962.61	94.18
962.777	143.97
962.944	82.16
963.111	139.32
963.278	102.12
963.446	90.3
963.613	80.42
963.78	105.61
963.947	122.27
964.114	120.72
964.281	161.41
964.448	110.26
964.615	87.4
964.782	93.6
964.949	109.29
965.116	97.47
965.282	155.79
965.449	83.91
965.616	61.82
965.783	106.77
965.95	90.69
966.117	59.11
966.283	74.61
966.45	109.48
966.617	77.13
966.784	127.7
966.95	151.53
967.117	127.5
967.284	85.65
967.45	96.89
967.617	150.17
967.784	134.48
967.95	146.1
968.117	68.22
968.283	122.08
968.45	193.76
968.616	124.98
968.783	134.48
968.949	129.63
969.116	135.83
969.282	116.65
969.449	116.07
969.615	123.43
969.781	102.31
969.948	82.16
970.114	66.86
970.28	184.66
970.447	122.08
970.613	170.71
970.779	134.09
970.945	145.13
971.112	111.23
971.278	96.31
971.444	135.64
971.61	135.25
971.776	111.03
971.942	124.79
972.108	139.9
972.275	114.13
972.441	139.51
972.607	160.25
972.773	94.56
972.939	98.83
973.105	113.55
973.271	72.87
973.437	102.31
973.602	73.83
973.768	110.06
973.934	69.18
974.1	110.84
974.266	83.33
974.432	131.57
974.598	97.08
974.763	138.55
974.929	78.1
975.095	144.75
975.261	75.19
975.426	77.13
975.592	82.55
975.758	156.95
975.923	29.85
976.089	73.64
976.255	133.9
976.42	95.92
976.586	120.91
976.751	102.51
976.917	168.19
977.082	140.68
977.248	79.65
977.413	16.29
977.579	87.01
977.744	106.77
977.91	72.48
978.075	117.04
978.24	118.4
978.406	82.75
978.571	77.52
978.736	72.87
978.902	104.83
979.067	70.73
979.232	57.17
979.397	105.41
979.563	149.59
979.728	55.82
979.893	81.2
980.058	63.76
980.223	140.68
980.388	105.03
980.554	94.76
980.719	76.74
980.884	115.88
981.049	137.96
981.214	98.63
981.379	115.88
981.544	79.07
981.709	97.86
981.874	86.81
982.039	89.33
982.204	120.14
982.368	87.01
982.533	63.95
982.698	131.18
982.863	124.6
983.028	65.7
983.193	122.66
983.357	102.51
983.522	107.93
983.687	82.75
983.852	80.23
984.016	80.81
984.181	106.58
984.346	110.45
984.51	113.55
984.675	104.83
984.839	138.55
985.004	103.48
985.168	168.58
985.333	97.66
985.498	99.6
985.662	93.6
985.827	106.38
985.991	119.95
986.155	94.76
986.32	95.92
986.484	141.45
986.649	106.38
986.813	49.62
986.977	112.78
987.142	114.71
987.306	72.87
987.47	80.03
987.634	104.25
987.799	98.63
987.963	102.31
988.127	101.35
988.291	154.05
988.455	102.12
988.62	100.76
988.784	116.07
988.948	95.53
989.112	79.45
989.276	96.7
989.44	90.11
989.604	76.16
989.768	86.81
989.932	175.55
990.096	53.3
990.26	70.15
990.424	55.62
990.588	72.87
990.752	126.53
990.915	113.16
991.079	68.41
991.243	78.29
991.407	114.91
991.571	80.81
991.734	98.25
991.898	126.34
992.062	163.35
992.226	84.3
992.389	74.03
992.553	29.08
992.717	70.15
992.88	81.78
993.044	52.72
993.207	88.17
993.371	102.9
993.535	121.5
993.698	77.13
993.862	118.2
994.025	116.07
994.189	99.02
994.352	91.27
994.515	101.73
994.679	113.75
994.842	68.41
995.006	121.11
995.169	54.27
995.332	33.53
995.496	119.95
995.659	31.4
995.822	79.07
995.985	63.57
996.149	126.53
996.312	78.1
996.475	112.78
996.638	77.52
996.801	141.26
996.964	123.43
997.128	69.96
997.291	71.51
997.454	87.01
997.617	63.18
997.78	104.45
997.943	67.63
998.106	93.79
998.269	59.69
998.432	60.47
998.595	70.93
998.758	33.15
998.92	62.79
999.083	12.03
999.246	73.64
999.409	28.88
999.572	9.12
999.735	50.97
999.897	79.65
1000.06	52.33
1000.223	55.23
1000.386	104.64
1000.548	100.18
1000.711	79.26
1000.874	70.93
1001.036	48.84
1001.199	117.62
1001.361	56.98
1001.524	95.73
1001.687	87.98
1001.849	45.55
1002.012	85.46
1002.174	66.28
1002.337	82.75
1002.499	74.03
1002.661	116.65
1002.824	47.48
1002.986	40.51
1003.149	73.83
1003.311	49.42
1003.473	113.16
1003.636	57.95
1003.798	87.2
1003.96	79.65
1004.123	51.75
1004.285	77.52
1004.447	39.15
1004.609	49.81
1004.771	115.88
1004.933	36.44
1005.096	41.48
1005.258	54.85
1005.42	54.46
1005.582	85.07
1005.744	61.24
1005.906	23.27
1006.068	66.86
1006.23	42.25
1006.392	-0.37
1006.554	34.7
1006.716	100.96
1006.878	86.04
1007.04	8.73
1007.202	12.03
1007.363	76.16
1007.525	42.06
1007.687	61.63
1007.849	87.2
1008.011	11.06
1008.172	24.82
1008.334	28.69
1008.496	51.94
1008.658	14.93
1008.819	22.68
1008.981	9.9
1009.143	34.31
1009.304	40.9
1009.466	60.66
1009.627	105.8
1009.789	135.25
1009.95	74.03
1010.112	58.14
1010.273	69.96
1010.435	17.84
1010.596	41.87
1010.758	66.47
1010.919	22.3
1011.081	7.77
1011.242	24.82
1011.403	80.81
1011.565	12.03
1011.726	59.3
1011.887	-0.76
1012.049	60.66
1012.21	64.53
1012.371	97.86
1012.532	-5.22
1012.693	65.89
1012.855	22.1
1013.016	43.8
1013.177	86.62
1013.338	20.36
1013.499	105.22
1013.66	48.45
1013.821	86.23
1013.982	52.72
1014.143	44.97
1014.304	34.89
1014.465	57.56
1014.626	63.57
1014.787	54.46
1014.948	110.45
1015.109	-14.32
1015.27	64.34
1015.431	30.82
1015.592	13.38
1015.752	59.88
1015.913	42.06
1016.074	38.38
1016.235	30.82
1016.395	38.18
1016.556	44.77
1016.717	9.12
1016.877	73.45
1017.038	14.55
1017.199	55.23
1017.359	48.45
1017.52	45.93
1017.681	33.34
1017.841	31.21
1018.002	23.46
1018.162	23.27
1018.323	81.2
1018.483	23.46
1018.644	5.83
1018.804	0.98
1018.964	2.92
1019.125	28.88
1019.285	39.73
1019.446	6.6
1019.606	0.21
1019.766	-24.4
1019.926	26.75
1020.087	31.6
1020.247	-2.31
1020.407	46.9
1020.567	65.89
1020.728	6.6
1020.888	-16.06
1021.048	-11.61
1021.208	6.8
1021.368	-11.41
1021.528	86.04
1021.688	84.1
1021.848	67.83
1022.008	34.5
1022.168	34.89
1022.328	19.78
1022.488	35.67
1022.648	50.97
1022.808	11.25
1022.968	52.52
1023.128	0.02
1023.288	5.25
1023.448	13.97
1023.608	46.13
1023.767	58.14
1023.927	14.35
1024.087	-24.59
1024.247	1.95
1024.406	16.48
1024.566	-0.76
1024.726	-20.33
1024.885	24.82
1025.045	56.59
1025.205	19.58
1025.364	23.85
1025.524	27.92
1025.683	14.35
1025.843	42.25
1026.003	18.62
1026.162	87.78
1026.321	53.49
1026.481	63.76
1026.64	18.03
1026.8	42.06
1026.959	35.47
1027.119	24.43
1027.278	10.67
1027.437	21.72
1027.597	37.8
1027.756	35.67
1027.915	28.11
1028.074	50.58
1028.234	-7.54
1028.393	24.62
1028.552	18.23
1028.711	-50.75
1028.87	67.63
1029.03	-6.57
1029.189	40.51
1029.348	-50.16
1029.507	12.8
1029.666	11.06
1029.825	-17.81
1029.984	17.65
1030.143	33.73
1030.302	7.57
1030.461	-45.32
1030.62	33.92
1030.779	51.55
1030.938	-12.58
1031.097	-4.44
1031.255	50.2
1031.414	59.88
1031.573	27.92
1031.732	-7.54
1031.891	16.29
1032.049	50.97
1032.208	21.13
1032.367	-11.22
1032.525	-11.61
1032.684	6.02
1032.843	8.15
1033.001	-27.11
1033.16	146.1
1033.319	76.93
1033.477	31.21
1033.636	-21.49
1033.794	-5.6
1033.953	43.22
1034.111	23.85
1034.27	-14.51
1034.428	31.6
1034.587	-14.32
1034.745	22.68
1034.903	25.2
1035.062	35.47
1035.22	-9.28
1035.378	47.1
1035.537	13.38
1035.695	42.64
1035.853	0.02
1036.011	43.22
1036.17	27.14
1036.328	-33.31
1036.486	24.82
1036.644	29.27
1036.802	-34.66
1036.96	-18
1037.119	19.97
1037.277	-17.42
1037.435	-34.86
1037.593	-14.71
1037.751	16.29
1037.909	47.29
1038.067	47.29
