Data from oakcork_FLMT105791__204__17-32-17-056.txt Node

Date: Mon Mar 20 17:32:17 GMT 2023
User: antho
Spectrometer: FLMT10579
Trigger mode: 0
Integration Time (sec): 1.000000E-1
Scans to average: 10
Electric dark correction enabled: true
Nonlinearity correction enabled: false
Boxcar width: 0
XAxis mode: Wavelengths
Number of Pixels in Spectrum: 3648
>>>>>Begin Spectral Data<<<<<
345.248	-139.72
345.464	-139.72
345.681	-139.72
345.898	-145.73
346.114	-146.7
346.331	-15.73
346.548	8.11
346.764	0.16
346.981	-10.88
347.197	-7.01
347.414	43.17
347.631	-23.09
347.847	41.04
348.064	-16.31
348.28	28.25
348.497	-51.38
348.713	3.65
348.93	10.43
349.146	7.91
349.363	12.17
349.579	26.9
349.796	10.24
350.012	-0.81
350.229	45.69
350.445	18.57
350.661	-25.8
350.878	0.16
351.094	25.54
351.311	27.87
351.527	21.28
351.743	-15.73
351.96	36.39
352.176	34.07
352.392	35.42
352.609	38.33
352.825	-2.94
353.041	7.52
353.257	-2.16
353.474	2.1
353.69	23.22
353.906	17.02
354.122	-12.82
354.339	21.86
354.555	13.92
354.771	-12.24
354.987	68.36
355.203	64.49
355.42	-12.63
355.636	-32.78
355.852	11.98
356.068	7.91
356.284	-5.65
356.5	76.89
356.716	11.98
356.932	-5.07
357.148	41.82
357.364	-8.56
357.58	47.82
357.796	63.13
358.012	40.85
358.228	19.73
358.444	-20.76
358.66	64.1
358.876	31.94
359.092	-20.76
359.308	31.74
359.524	36.59
359.74	-7.01
359.956	17.21
360.172	12.76
360.388	44.53
360.604	6.75
360.819	96.45
361.035	18.95
361.251	41.24
361.467	28.45
361.683	57.9
361.898	34.65
362.114	37.94
362.33	32.71
362.546	63.9
362.762	10.62
362.977	11.01
363.193	-22.31
363.409	52.67
363.624	-25.41
363.84	-17.86
364.056	-11.46
364.271	19.34
364.487	17.6
364.703	21.86
364.918	-18.05
365.134	15.47
365.35	34.45
365.565	92.19
365.781	-5.07
365.996	36.78
366.212	86.96
366.427	22.64
366.643	-7.01
366.858	8.3
367.074	6.56
367.289	57.9
367.505	133.07
367.72	-4.68
367.936	2.87
368.151	55.19
368.367	46.47
368.582	39.3
368.798	-6.04
369.013	70.69
369.228	39.3
369.444	26.32
369.659	71.46
369.874	47.05
370.09	66.42
370.305	-13.01
370.52	-8.17
370.736	63.13
370.951	13.72
371.166	53.25
371.381	85.6
371.597	50.73
371.812	0.16
372.027	0.16
372.242	41.82
372.458	113.5
372.673	-0.81
372.888	27.09
373.103	40.65
373.318	77.85
373.533	50.73
373.749	29.22
373.964	-31.81
374.179	71.46
374.394	-10.49
374.609	60.03
374.824	-0.23
375.039	61.97
375.254	-7.98
375.469	89.29
375.684	30.97
375.899	38.14
376.114	45.3
376.329	26.9
376.544	51.89
376.759	64.49
376.974	-9.72
377.189	26.51
377.404	21.09
377.619	75.14
377.834	-8.94
378.049	8.11
378.264	-10.11
378.478	43.17
378.693	29.8
378.908	42.79
379.123	19.54
379.338	102.27
379.553	37.17
379.767	39.88
379.982	45.5
380.197	39.49
380.412	23.99
380.626	56.93
380.841	85.41
381.056	45.89
381.271	83.09
381.485	12.95
381.7	-14.95
381.915	26.12
382.129	16.63
382.344	49.57
382.559	18.37
382.773	68.75
382.988	-5.84
383.202	63.71
383.417	11.59
383.632	112.92
383.846	44.14
384.061	40.27
384.275	9.46
384.49	57.12
384.704	38.91
384.919	48.02
385.133	48.79
385.348	56.74
385.562	-3.33
385.777	74.17
385.991	51.7
386.206	15.47
386.42	11.98
386.634	68.55
386.849	56.35
387.063	43.56
387.277	-3.13
387.492	0.16
387.706	3.84
387.92	-16.69
388.135	69.91
388.349	39.3
388.563	27.29
388.778	12.76
388.992	63.13
389.206	29.22
389.42	114.08
389.635	26.9
389.849	69.52
390.063	60.8
390.277	42.01
390.491	81.15
390.706	44.53
390.92	85.02
391.134	46.66
391.348	52.86
391.562	-50.21
391.776	29.61
391.99	49.18
392.205	36
392.419	28.45
392.633	19.34
392.847	85.6
393.061	4.42
393.275	115.25
393.489	27.29
393.703	64.1
393.917	88.7
394.131	32.71
394.345	64.49
394.559	59.64
394.773	22.64
394.986	41.43
395.2	31.35
395.414	73.2
395.628	6.17
395.842	41.04
396.056	19.54
396.27	-0.81
396.484	37.55
396.697	65.26
396.911	60.22
397.125	61.58
397.339	77.08
397.553	59.25
397.766	100.72
397.98	75.72
398.194	57.51
398.408	17.02
398.621	52.09
398.835	65.84
399.049	47.63
399.262	82.5
399.476	24.38
399.69	77.27
399.903	83.67
400.117	48.99
400.331	91.42
400.544	29.42
400.758	127.26
400.971	64.29
401.185	75.92
401.398	5.01
401.612	89.29
401.826	60.8
402.039	77.66
402.253	20.31
402.466	71.27
402.68	34.26
402.893	41.62
403.106	59.25
403.32	64.68
403.533	66.81
403.747	56.54
403.96	49.76
404.174	91.03
404.387	18.76
404.6	49.95
404.814	105.56
405.027	51.7
405.24	39.88
405.454	36.78
405.667	83.67
405.88	-8.94
406.094	63.32
406.307	73.01
406.52	82.12
406.733	-0.61
406.947	-12.82
407.16	91.8
407.373	57.32
407.586	32.52
407.799	17.4
408.012	83.47
408.226	63.13
408.439	87.15
408.652	6.75
408.865	61.39
409.078	82.7
409.291	90.84
409.504	-0.23
409.717	67.39
409.93	66.23
410.143	61
410.357	-7.2
410.57	25.54
410.783	56.74
410.996	30.77
411.209	75.92
411.421	60.8
411.634	51.7
411.847	24.77
412.06	53.25
412.273	66.23
412.486	33.29
412.699	126.1
412.912	64.68
413.125	73.98
413.338	32.9
413.55	93.94
413.763	58.29
413.976	51.12
414.189	37.17
414.402	15.66
414.615	95.49
414.827	15.08
415.04	72.62
415.253	50.73
415.466	89.09
415.678	94.13
415.891	27.87
416.104	39.3
416.316	49.95
416.529	31.74
416.742	77.27
416.954	69.14
417.167	38.33
417.38	22.83
417.592	73.59
417.805	8.11
418.017	-11.85
418.23	90.84
418.442	40.85
418.655	49.18
418.868	71.46
419.08	79.79
419.293	90.84
419.505	64.29
419.718	72.82
419.93	85.02
420.142	39.88
420.355	90.06
420.567	90.25
420.78	70.69
420.992	54.22
421.205	129.39
421.417	12.76
421.629	35.81
421.842	14.69
422.054	4.81
422.266	75.72
422.479	91.8
422.691	36.2
422.903	89.67
423.115	34.65
423.328	42.79
423.54	68.94
423.752	59.45
423.964	57.12
424.177	67.2
424.389	52.67
424.601	139.08
424.813	77.85
425.025	89.67
425.238	83.86
425.45	23.02
425.662	63.71
425.874	309.19
426.086	36.59
426.298	66.81
426.51	56.93
426.722	47.44
426.934	46.08
427.146	76.69
427.358	13.14
427.57	91.42
427.782	51.31
427.994	52.28
428.206	38.14
428.418	17.4
428.63	102.27
428.842	82.7
429.054	75.34
429.266	88.51
429.478	49.76
429.69	48.21
429.902	8.69
430.114	97.04
430.325	79.79
430.537	44.34
430.749	49.18
430.961	18.18
431.173	54.6
431.384	83.67
431.596	12.95
431.808	51.89
432.02	55.57
432.231	79.4
432.443	92.77
432.655	60.8
432.867	43.17
433.078	41.62
433.29	128.23
433.502	95.29
433.713	110.98
433.925	65.65
434.136	83.28
434.348	30.19
434.56	10.43
434.771	165.04
434.983	4.04
435.194	25.54
435.406	33.1
435.617	68.17
435.829	117.18
436.04	52.28
436.252	86.19
436.463	95.29
436.675	86.19
436.886	50.92
437.098	73.79
437.309	116.8
437.521	52.09
437.732	53.44
437.943	80.57
438.155	72.62
438.366	47.24
438.578	109.82
438.789	69.72
439	71.46
439.211	78.44
439.423	71.65
439.634	92.39
439.845	94.13
440.057	73.79
440.268	79.6
440.479	42.01
440.69	92.77
440.902	62.16
441.113	97.04
441.324	44.72
441.535	70.49
441.746	114.47
441.957	25.15
442.168	85.6
442.38	83.09
442.591	102.85
442.802	6.94
443.013	51.89
443.224	67.59
443.435	54.02
443.646	54.02
443.857	69.72
444.068	61.97
444.279	21.67
444.49	117.18
444.701	75.34
444.912	154.19
445.123	89.29
445.334	83.67
445.545	70.88
445.756	63.52
445.967	40.65
446.178	81.15
446.388	118.54
446.599	98.2
446.81	122.03
447.021	53.05
447.232	112.92
447.443	112.73
447.653	64.49
447.864	76.69
448.075	68.36
448.286	103.23
448.496	85.41
448.707	100.52
448.918	61.77
449.129	141.98
449.339	63.71
449.55	98
449.761	63.13
449.971	120.28
450.182	51.12
450.393	92
450.603	65.45
450.814	86.19
451.024	89.09
451.235	115.25
451.446	104.4
451.656	127.45
451.867	73.2
452.077	118.54
452.288	147.8
452.498	146.63
452.709	81.92
452.919	91.8
453.13	73.01
453.34	124.35
453.55	27.87
453.761	115.83
453.971	92.58
454.182	114.86
454.392	73.79
454.602	154.19
454.813	87.15
455.023	106.72
455.233	47.05
455.444	95.1
455.654	42.4
455.864	85.8
456.075	70.88
456.285	78.24
456.495	61.39
456.705	106.72
456.916	132.68
457.126	146.63
457.336	83.09
457.546	23.41
457.756	58.09
457.967	130.75
458.177	77.47
458.387	106.33
458.597	76.69
458.807	81.15
459.017	94.71
459.227	106.92
459.437	90.06
459.647	110.02
459.857	126.1
460.068	78.44
460.278	109.24
460.488	111.18
460.698	158.26
460.908	92
461.117	39.88
461.327	59.45
461.537	71.46
461.747	71.65
461.957	110.79
462.167	177.44
462.377	119.51
462.587	101.1
462.797	123.38
463.007	80.76
463.216	107.88
463.426	125.71
463.636	132.1
463.846	72.43
464.056	63.13
464.265	135.78
464.475	57.9
464.685	68.17
464.895	114.67
465.104	94.71
465.314	120.48
465.524	96.65
465.733	54.99
465.943	179.38
466.153	174.73
466.362	118.15
466.572	128.03
466.782	85.02
466.991	103.23
467.201	143.73
467.41	60.22
467.62	109.63
467.829	104.78
468.039	130.94
468.249	113.31
468.458	88.12
468.668	119.9
468.877	118.35
469.086	145.47
469.296	111.18
469.505	77.66
469.715	160.39
469.924	108.47
470.134	169.11
470.343	150.51
470.552	114.67
470.762	107.5
470.971	73.2
471.18	85.41
471.39	110.21
471.599	66.04
471.808	140.43
472.018	72.04
472.227	133.85
472.436	139.66
472.645	96.26
472.855	78.82
473.064	148.77
473.273	106.72
473.482	120.48
473.691	146.44
473.901	134.23
474.11	106.14
474.319	145.86
474.528	109.24
474.737	156.52
474.946	131.91
475.155	113.12
475.364	135.98
475.573	137.33
475.783	109.43
475.992	119.32
476.201	156.32
476.41	117.77
476.619	96.65
476.828	146.83
477.037	104.59
477.245	155.55
477.454	156.9
477.663	110.98
477.872	89.48
478.081	164.07
478.29	77.85
478.499	192.94
478.708	129.78
478.917	183.45
479.125	135.01
479.334	129.78
479.543	98.39
479.752	143.73
479.961	130.17
480.169	161.94
480.378	133.85
480.587	224.71
480.796	145.28
481.004	141.98
481.213	149.73
481.422	137.72
481.63	126.68
481.839	159.23
482.048	167.37
482.256	138.5
482.465	121.06
482.674	164.46
482.882	164.07
483.091	225.1
483.299	159.42
483.508	139.66
483.716	136.17
483.925	143.73
484.134	138.11
484.342	130.75
484.551	199.91
484.759	180.54
484.967	167.56
485.176	174.34
485.384	172.79
485.593	196.81
485.801	168.33
486.01	170.66
486.218	158.65
486.426	136.56
486.635	162.13
486.843	160.2
487.051	161.36
487.26	164.46
487.468	177.44
487.676	181.12
487.885	147.99
488.093	142.18
488.301	159.81
488.509	166.01
488.717	175.12
488.926	165.43
489.134	152.25
489.342	161.75
489.55	147.22
489.758	156.13
489.967	139.08
490.175	243.9
490.383	131.91
490.591	191.97
490.799	105.17
491.007	188.68
491.215	169.69
491.423	174.73
491.631	164.27
491.839	163.88
492.047	196.62
492.255	142.57
492.463	120.28
492.671	172.79
492.879	213.09
493.087	165.62
493.295	197.98
493.503	176.47
493.711	182.28
493.919	223.75
494.127	215.41
494.334	237.5
494.542	174.53
494.75	162.91
494.958	171.43
495.166	209.8
495.374	197.2
495.581	201.66
495.789	179.18
495.997	214.45
496.205	181.7
496.412	170.85
496.62	193.91
496.828	208.05
497.035	169.5
497.243	222.2
497.451	175.12
497.658	178.6
497.866	186.74
498.074	241.57
498.281	190.23
498.489	250.1
498.696	217.16
498.904	185
499.112	196.43
499.319	256.68
499.527	188.48
499.734	242.54
499.942	180.73
500.149	172.02
500.357	194.1
500.564	173.76
500.771	197.78
500.979	193.13
501.186	152.25
501.394	207.66
501.601	202.05
501.808	230.53
502.016	185.58
502.223	188.87
502.43	205.92
502.638	208.25
502.845	180.54
503.052	257.46
503.26	216.19
503.467	271.02
503.674	208.25
503.881	201.08
504.089	275.86
504.296	227.04
504.503	183.64
504.71	234.6
504.917	202.24
505.125	220.06
505.332	214.83
505.539	227.62
505.746	261.72
505.953	243.9
506.16	217.35
506.367	258.81
506.574	234.01
506.781	268.5
506.988	197.4
507.195	221.03
507.402	202.82
507.609	242.54
507.816	219.48
508.023	227.23
508.23	224.71
508.437	185.19
508.644	240.02
508.851	287.68
509.058	278.58
509.265	217.93
509.472	240.99
509.679	334.38
509.885	210.38
510.092	237.7
510.299	209.8
510.506	236.73
510.713	256.68
510.92	259.78
511.126	257.85
511.333	252.61
511.54	276.45
511.746	306.28
511.953	297.37
512.16	277.61
512.367	233.63
512.573	237.89
512.78	245.64
512.987	243.51
513.193	280.13
513.4	200.11
513.606	239.83
513.813	259.98
514.02	255.91
514.226	308.8
514.433	289.23
514.639	250.87
514.846	267.92
515.052	244.48
515.259	277.41
515.465	261.14
515.672	255.91
515.878	334.96
516.085	228.98
516.291	283.61
516.497	212.9
516.704	268.89
516.91	237.31
517.117	232.66
517.323	231.11
517.529	253.58
517.736	295.24
517.942	292.33
518.148	269.86
518.354	298.34
518.561	287.49
518.767	263.85
518.973	306.67
519.179	297.95
519.386	260.95
519.592	259.4
519.798	250.48
520.004	327.21
520.21	244.28
520.417	343.09
520.623	313.06
520.829	339.99
521.035	325.46
521.241	340.96
521.447	332.63
521.653	397.92
521.859	317.91
522.065	326.24
522.271	406.64
522.477	349.49
522.683	386.69
522.889	346.39
523.095	351.23
523.301	372.54
523.507	305.89
523.713	358.4
523.919	289.23
524.125	392.11
524.331	303.57
524.537	399.86
524.742	370.8
524.948	372.74
525.154	388.82
525.36	449.46
525.566	384.17
525.772	430.86
525.977	340.96
526.183	418.07
526.389	430.67
526.595	390.76
526.8	365.96
527.006	354.72
527.212	357.63
527.417	342.32
527.623	350.07
527.829	379.52
528.034	404.71
528.24	393.86
528.446	327.4
528.651	401.99
528.857	419.82
529.062	426.02
529.268	409.16
529.473	388.82
529.679	371.77
529.884	453.34
530.09	432.61
530.295	451.59
530.501	456.44
530.706	438.03
530.912	379.91
531.117	412.84
531.323	424.47
531.528	451.79
531.733	441.13
531.939	398.31
532.144	441.71
532.35	404.71
532.555	476.59
532.76	458.76
532.966	486.85
533.171	463.02
533.376	448.69
533.581	395.02
533.787	425.24
533.992	431.64
534.197	481.62
534.402	452.95
534.607	461.09
534.813	525.41
535.018	465.74
535.223	430.09
535.428	449.85
535.633	517.47
535.838	475.04
536.043	470.97
536.249	555.63
536.454	459.73
536.659	484.72
536.864	454.11
537.069	448.3
537.274	466.12
537.479	458.76
537.684	510.3
537.889	477.36
538.094	542.85
538.299	483.75
538.504	504.49
538.708	505.07
538.913	500.03
539.118	504.1
539.323	510.69
539.528	472.71
539.733	492.47
539.938	519.99
540.142	523.67
540.347	480.07
540.552	485.69
540.757	510.1
540.962	503.9
541.166	458.95
541.371	429.7
541.576	498.09
541.781	399.47
541.985	495.57
542.19	473.49
542.395	534.71
542.599	549.05
542.804	546.53
543.008	554.47
543.213	462.83
543.418	468.84
543.622	533.55
543.827	447.72
544.031	549.63
544.236	526.57
544.44	504.1
544.645	606.59
544.849	492.09
545.054	532.58
545.258	582.76
545.463	556.22
545.667	499.06
545.872	544.59
546.076	532.77
546.281	525.22
546.485	497.51
546.689	544.98
546.894	566.48
547.098	509.52
547.302	468.64
547.507	528.51
547.711	527.54
547.915	588.77
548.119	494.41
548.324	526.96
548.528	584.89
548.732	532.39
548.936	539.17
549.141	579.66
549.345	528.12
549.549	553.89
549.753	510.1
549.957	565.13
550.161	591.48
550.366	519.02
550.57	514.75
550.774	521.73
550.978	528.7
551.182	579.47
551.386	517.08
551.59	524.64
551.794	527.35
551.998	560.28
552.202	511.27
552.406	512.62
552.61	516.89
552.814	560.48
553.018	590.9
553.222	538.2
553.426	539.94
553.63	620.93
553.833	548.27
554.037	501
554.241	563.19
554.445	539.17
554.649	522.31
554.853	532
555.056	565.71
555.26	578.88
555.464	561.06
555.668	562.61
555.871	600.2
556.075	554.67
556.279	514.37
556.483	514.75
556.686	524.05
556.89	542.46
557.094	560.67
557.297	483.56
557.501	602.13
557.704	492.86
557.908	568.42
558.112	518.24
558.315	558.35
558.519	551.95
558.722	528.9
558.926	508.94
559.129	495.96
559.333	477.94
559.536	473.68
559.74	508.36
559.943	498.67
560.147	493.64
560.35	488.6
560.553	485.69
560.757	450.82
560.96	547.3
561.164	495.19
561.367	531.8
561.57	486.47
561.774	517.08
561.977	514.17
562.18	488.6
562.384	554.86
562.587	513.59
562.79	476.59
562.993	493.44
563.197	537.62
563.4	538.78
563.603	531.03
563.806	602.72
564.009	474.26
564.212	504.87
564.416	467.09
564.619	496.15
564.822	465.35
565.025	538.78
565.228	497.32
565.431	491.89
565.634	417.49
565.837	481.24
566.04	445.97
566.243	470.19
566.446	406.64
566.649	476
566.852	443.07
567.055	443.84
567.258	476.97
567.461	512.04
567.664	516.89
567.867	407.42
568.07	465.35
568.273	465.74
568.475	478.72
568.678	469.8
568.881	433.19
569.084	477.17
569.287	376.22
569.489	408.77
569.692	468.84
569.895	486.47
570.098	419.62
570.3	390.76
570.503	375.26
570.706	392.89
570.909	418.66
571.111	389.59
571.314	353.36
571.516	398.7
571.719	405.87
571.922	397.15
572.124	387.27
572.327	401.22
572.529	356.27
572.732	359.95
572.935	416.52
573.137	448.49
573.34	367.31
573.542	407.61
573.745	410.13
573.947	416.14
574.15	367.89
574.352	348.91
574.554	433.57
574.757	352.01
574.959	342.51
575.162	369.25
575.364	373.51
575.566	461.09
575.769	350.65
575.971	406.64
576.173	292.53
576.376	354.53
576.578	401.61
576.78	402.96
576.982	294.27
577.185	362.86
577.387	324.11
577.589	317.33
577.791	368.86
577.993	375.06
578.196	332.83
578.398	362.66
578.6	390.37
578.802	327.01
579.004	309.58
579.206	321.98
579.408	353.17
579.61	334.38
579.812	377.19
580.014	354.14
580.216	340.19
580.418	334.57
580.62	328.56
580.822	293.3
581.024	338.25
581.226	369.64
581.428	339.61
581.63	405.29
581.832	333.41
582.034	375.64
582.236	344.26
582.438	343.48
582.64	374.29
582.841	395.6
583.043	426.02
583.245	363.83
583.447	390.17
583.649	343.09
583.85	353.56
584.052	390.56
584.254	311.32
584.456	374.09
584.657	304.54
584.859	344.84
585.061	340.96
585.262	315.39
585.464	291.94
585.666	361.89
585.867	313.64
586.069	371.96
586.27	333.79
586.472	351.43
586.674	319.84
586.875	339.8
587.077	333.41
587.278	334.57
587.48	320.81
587.681	408.77
587.883	333.21
588.084	299.5
588.285	315.19
588.487	281.68
588.688	328.56
588.89	305.7
589.091	284.78
589.292	297.37
589.494	334.18
589.695	292.14
589.896	253.2
590.098	263.85
590.299	305.12
590.5	274.51
590.702	283.03
590.903	294.66
591.104	346.19
591.305	308.99
591.507	356.66
591.708	280.9
591.909	303.76
592.11	372.93
592.311	324.49
592.512	299.5
592.714	274.9
592.915	265.79
593.116	290.98
593.317	279.93
593.518	285.94
593.719	293.49
593.92	298.53
594.121	326.24
594.322	309.58
594.523	294.66
594.724	273.73
594.925	277.41
595.126	302.41
595.327	326.63
595.528	287.49
595.729	319.26
595.929	297.18
596.13	316.36
596.331	282.64
596.532	311.13
596.733	323.72
596.934	336.7
597.135	344.06
597.335	325.66
597.536	276.25
597.737	290.59
597.938	284.78
598.138	345.03
598.339	299.5
598.54	330.89
598.74	296.21
598.941	296.01
599.142	319.07
599.342	301.05
599.543	281.29
599.744	299.69
599.944	294.46
600.145	294.66
600.345	301.44
600.546	355.88
600.746	340.77
600.947	392.11
601.147	309.96
601.348	316.74
601.548	273.54
601.749	319.65
601.949	268.89
602.15	289.04
602.35	276.06
602.551	346.58
602.751	268.5
602.951	296.79
603.152	237.5
603.352	314.61
603.552	306.28
603.753	316.36
603.953	286.33
604.153	290.59
604.354	271.21
604.554	287.29
604.754	294.66
604.954	267.92
605.155	305.31
605.355	247.58
605.555	318.68
605.755	350.65
605.955	300.66
606.155	346
606.356	303.96
606.556	327.01
606.756	316.36
606.956	237.7
607.156	336.31
607.356	288.84
607.556	310.54
607.756	314.61
607.956	317.91
608.156	297.37
608.356	273.93
608.556	318.68
608.756	257.07
608.956	271.41
609.156	307.83
609.356	266.76
609.556	222.58
609.755	295.04
609.955	257.65
610.155	296.01
610.355	287.88
610.555	267.92
610.755	298.92
610.954	238.28
611.154	257.07
611.354	286.71
611.554	238.66
611.753	249.51
611.953	228.2
612.153	278.96
612.352	301.44
612.552	232.46
612.752	205.34
612.951	254.16
613.151	297.18
613.351	275.67
613.55	263.85
613.75	284
613.949	239.44
614.149	279.35
614.348	298.53
614.548	254.36
614.747	222.97
614.947	247.77
615.146	218.71
615.346	279.74
615.545	269.28
615.745	280.71
615.944	297.18
616.144	247.38
616.343	296.79
616.542	256.88
616.742	256.49
616.941	289.04
617.14	221.61
617.34	244.86
617.539	266.56
617.738	217.55
617.938	311.51
618.137	239.83
618.336	229.56
618.535	250.29
618.734	245.06
618.934	262.88
619.133	234.6
619.332	271.6
619.531	217.35
619.73	248.16
619.929	279.93
620.128	289.43
620.328	271.21
620.527	243.9
620.726	252.81
620.925	244.09
621.124	250.1
621.323	240.6
621.522	239.83
621.721	227.43
621.92	224.71
622.119	277.22
622.318	236.34
622.517	253.39
622.715	251.84
622.914	193.33
623.113	233.82
623.312	202.24
623.511	246.22
623.71	227.23
623.909	221.81
624.107	290.2
624.306	191.2
624.505	223.94
624.704	231.5
624.902	215.8
625.101	260.56
625.3	244.09
625.499	205.73
625.697	223.75
625.896	204.56
626.095	269.47
626.293	187.13
626.492	200.11
626.69	256.88
626.889	188.68
627.088	225.68
627.286	191.39
627.485	186.16
627.683	217.35
627.882	253.2
628.08	183.64
628.279	205.53
628.477	264.82
628.676	212.31
628.874	232.66
629.073	219.87
629.271	187.32
629.469	230.72
629.668	203.98
629.866	239.44
630.065	190.61
630.263	232.08
630.461	213.28
630.66	222.97
630.858	229.95
631.056	243.9
631.254	241.38
631.453	187.52
631.651	225.88
631.849	233.82
632.047	231.11
632.245	185.77
632.444	235.37
632.642	259.78
632.84	245.25
633.038	214.25
633.236	166.59
633.434	191
633.632	189.65
633.83	185.19
634.028	198.75
634.227	189.26
634.425	235.76
634.623	203.21
634.821	198.17
635.019	217.16
635.216	178.8
635.414	228.98
635.612	205.53
635.81	208.63
636.008	291.94
636.206	180.73
636.404	237.7
636.602	159.03
636.8	197.2
636.997	224.33
637.195	234.98
637.393	195.46
637.591	258.62
637.789	230.14
637.986	194.3
638.184	234.4
638.382	235.56
638.58	253.78
638.777	279.54
638.975	211.35
639.173	191
639.37	228.98
639.568	224.33
639.765	254.36
639.963	208.83
640.161	284.39
640.358	264.05
640.556	194.49
640.753	178.22
640.951	185.97
641.148	221.81
641.346	210.57
641.543	195.26
641.741	242.35
641.938	185.77
642.136	234.21
642.333	174.73
642.531	237.31
642.728	235.56
642.925	210.18
643.123	192.75
643.32	208.25
643.517	214.64
643.715	213.67
643.912	202.05
644.109	186.93
644.306	210.76
644.504	177.05
644.701	222.39
644.898	208.44
645.095	174.73
645.293	198.17
645.49	231.88
645.687	226.85
645.884	234.79
646.081	150.32
646.278	163.88
646.475	157.1
646.672	199.33
646.87	216.19
647.067	190.42
647.264	240.41
647.461	178.6
647.658	165.62
647.855	209.02
648.052	182.87
648.249	124.35
648.446	191.97
648.642	159.42
648.839	164.85
649.036	151.67
649.233	132.88
649.43	168.92
649.627	168.33
649.824	186.93
650.021	185.77
650.217	169.88
650.414	166.4
650.611	182.67
650.808	177.25
651.004	187.32
651.201	197.2
651.398	235.56
651.595	171.24
651.791	164.65
651.988	202.63
652.185	209.6
652.381	172.79
652.578	122.22
652.775	158.45
652.971	173.76
653.168	168.72
653.364	216.58
653.561	118.35
653.757	182.67
653.954	188.68
654.15	141.6
654.347	233.05
654.543	173.57
654.74	114.28
654.936	132.49
655.133	164.65
655.329	174.73
655.525	149.35
655.722	219.48
655.918	139.66
656.115	217.35
656.311	140.24
656.507	153.42
656.704	99.55
656.9	152.83
657.096	123.19
657.292	109.43
657.489	169.3
657.685	154.58
657.881	141.02
658.077	153.42
658.273	138.69
658.47	214.25
658.666	160.39
658.862	175.12
659.058	139.66
659.254	203.6
659.45	118.15
659.646	166.2
659.842	138.5
660.038	211.73
660.234	154.38
660.43	166.4
660.626	227.62
660.822	186.16
661.018	173.18
661.214	157.87
661.41	149.15
661.606	182.28
661.802	158.26
661.998	156.52
662.194	135.01
662.39	153.8
662.586	163.88
662.781	178.6
662.977	176.67
663.173	188.68
663.369	159.42
663.564	178.41
663.76	204.18
663.956	143.92
664.152	213.09
664.347	109.82
664.543	155.55
664.739	159.23
664.934	120.48
665.13	103.04
665.326	195.85
665.521	167.37
665.717	129.2
665.912	129.58
666.108	88.7
666.304	131.72
666.499	141.79
666.695	103.23
666.89	148.77
667.086	193.52
667.281	182.48
667.477	214.64
667.672	167.17
667.867	177.25
668.063	161.94
668.258	135.98
668.454	160.97
668.649	195.46
668.844	170.85
669.04	184.8
669.235	145.86
669.43	126.87
669.626	121.06
669.821	127.84
670.016	153.61
670.211	149.54
670.407	123.58
670.602	135.78
670.797	154.38
670.992	159.42
671.187	123.97
671.382	196.62
671.578	144.31
671.773	151.09
671.968	126.68
672.163	154
672.358	184.8
672.553	128.03
672.748	140.63
672.943	193.52
673.138	155.35
673.333	192.75
673.528	100.72
673.723	178.8
673.918	121.06
674.113	103.23
674.308	185.58
674.503	166.01
674.698	185.58
674.892	166.98
675.087	205.92
675.282	168.72
675.477	128.42
675.672	153.8
675.867	130.55
676.061	104.59
676.256	90.06
676.451	135.59
676.646	133.65
676.84	129.97
677.035	107.5
677.23	92.39
677.424	157.87
677.619	186.16
677.814	170.27
678.008	194.3
678.203	100.33
678.397	110.21
678.592	147.8
678.787	202.24
678.981	140.05
679.176	143.34
679.37	135.2
679.565	129.58
679.759	137.72
679.954	154.38
680.148	221.42
680.342	186.16
680.537	190.42
680.731	146.05
680.926	136.75
681.12	173.57
681.314	138.5
681.509	142.37
681.703	146.44
681.897	193.33
682.092	132.88
682.286	143.73
682.48	191.97
682.674	194.88
682.869	118.15
683.063	134.04
683.257	196.43
683.451	102.07
683.645	161.17
683.839	141.79
684.034	123
684.228	164.85
684.422	92.97
684.616	126.29
684.81	160
685.004	146.25
685.198	135.78
685.392	159.81
685.586	98.59
685.78	162.13
685.974	189.45
686.168	182.67
686.362	202.82
686.556	139.08
686.75	88.9
686.944	157.29
687.138	192.55
687.331	102.85
687.525	172.02
687.719	66.42
687.913	146.83
688.107	174.34
688.301	110.79
688.494	166.4
688.688	91.8
688.882	84.25
689.076	118.35
689.269	116.02
689.463	165.23
689.657	110.21
689.85	132.49
690.044	139.08
690.238	131.91
690.431	142.18
690.625	110.02
690.818	132.1
691.012	123.97
691.205	162.91
691.399	98.78
691.593	159.62
691.786	210.38
691.98	166.01
692.173	199.72
692.366	157.29
692.56	171.43
692.753	220.26
692.947	119.32
693.14	216
693.333	201.46
693.527	124.16
693.72	161.17
693.914	141.79
694.107	113.7
694.3	191.97
694.493	159.62
694.687	189.45
694.88	137.92
695.073	230.33
695.266	169.69
695.46	179.96
695.653	217.74
695.846	222
696.039	149.73
696.232	179.18
696.425	198.17
696.618	191.78
696.812	180.93
697.005	225.1
697.198	273.15
697.391	207.66
697.584	231.11
697.777	241.96
697.97	260.56
698.163	259.59
698.356	244.09
698.549	287.68
698.742	275.86
698.935	260.56
699.127	269.86
699.32	221.81
699.513	228.59
699.706	289.23
699.899	280.32
700.092	244.09
700.285	281.29
700.477	222.2
700.67	297.76
700.863	299.31
701.056	372.93
701.248	355.88
701.441	320.04
701.634	296.01
701.826	380.29
702.019	275.28
702.212	336.51
702.404	314.42
702.597	283.42
702.79	338.25
702.982	329.73
703.175	377.97
703.367	373.12
703.56	391.92
703.752	445.01
703.945	397.54
704.137	394.05
704.33	412.65
704.522	418.27
704.715	415.36
704.907	428.34
705.1	452.75
705.292	479.3
705.484	420.01
705.677	474.07
705.869	453.92
706.061	490.92
706.254	512.04
706.446	499.64
706.638	477.75
706.831	534.71
707.023	470.58
707.215	587.6
707.407	534.32
707.599	538.2
707.792	541.49
707.984	575.4
708.176	571.13
708.368	547.3
708.56	575.59
708.752	579.47
708.944	553.31
709.136	589.15
709.329	604.46
709.521	679.25
709.713	650.38
709.905	630.42
710.097	662.39
710.289	628.48
710.481	643.98
710.672	664.91
710.864	661.42
711.056	710.83
711.248	695.91
711.44	704.63
711.632	716.44
711.824	706.95
712.016	759.84
712.207	751.32
712.399	774.57
712.591	808.67
712.783	780.58
712.975	817.39
713.166	747.25
713.358	756.36
713.55	830.17
713.741	822.62
713.933	834.63
714.125	798.59
714.316	802.66
714.508	884.81
714.7	884.23
714.891	860.79
715.083	940.8
715.274	851.1
715.466	877.26
715.657	905.74
715.849	851.1
716.04	897.21
716.232	852.26
716.423	954.37
716.615	883.65
716.806	880.36
716.998	870.09
717.189	827.07
717.381	780.19
717.572	779.41
717.763	836.57
717.955	798.79
718.146	792.78
718.337	763.91
718.528	743.76
718.72	704.24
718.911	808.67
719.102	761.01
719.293	808.86
719.485	780.19
719.676	774.38
719.867	767.01
720.058	766.82
720.249	763.53
720.44	789.68
720.632	817.39
720.823	824.94
721.014	930.92
721.205	927.05
721.396	994.67
721.587	1059.18
721.778	1034.19
721.969	1060.35
722.16	1098.13
722.351	1097.16
722.542	1191.71
722.733	1194.23
722.924	1099.1
723.115	1169.23
723.305	1153.73
723.496	1187.25
723.687	1139.78
723.878	1123.12
724.069	1141.91
724.26	1132.81
724.45	1100.45
724.641	1071.2
724.832	1127
725.023	1105.68
725.213	1135.91
725.404	1130.29
725.595	1116.73
725.785	1126.41
725.976	1190.16
726.167	1161.87
726.357	1157.99
726.548	1230.46
726.739	1182.99
726.929	1246.54
727.12	1235.69
727.31	1312.41
727.501	1269.98
727.691	1296.33
727.882	1304.27
728.072	1312.8
728.263	1295.36
728.453	1321.71
728.644	1366.08
728.834	1342.44
729.024	1318.22
729.215	1314.16
729.405	1359.3
729.596	1431.95
729.786	1421.49
729.976	1408.7
730.167	1461.79
730.357	1417.62
730.547	1422.65
730.737	1449.58
730.928	1488.14
731.118	1535.03
731.308	1486.59
731.498	1515.07
731.688	1555.56
731.879	1566.03
732.069	1637.52
732.259	1601.29
732.449	1666.39
732.639	1715.79
732.829	1728
733.019	1757.45
733.209	1798.72
733.399	1840.57
733.589	1886.48
733.779	1881.83
733.969	1863.82
734.159	1919.42
734.349	1971.15
734.539	1972.7
734.729	1957.2
734.919	2005.83
735.109	2064.54
735.299	1977.74
735.488	2019.78
735.678	2025.98
735.868	2050.59
736.058	2057.95
736.248	2049.81
736.437	2008.74
736.627	2033.15
736.817	2138.55
737.007	2082.75
737.196	2135.45
737.386	2100.19
737.576	2077.13
737.765	2124.99
737.955	2138.74
738.144	2190.47
738.334	2194.74
738.524	2165.09
738.713	2230
738.903	2192.22
739.092	2249.95
739.282	2251.7
739.471	2259.06
739.661	2237.75
739.85	2262.35
740.04	2298.2
740.229	2358.07
740.419	2308.08
740.608	2340.82
740.797	2335.4
740.987	2415.61
741.176	2369.5
741.365	2357.48
741.555	2310.21
741.744	2420.45
741.933	2409.8
742.123	2439.05
742.312	2449.51
742.501	2448.16
742.69	2453.2
742.88	2398.17
743.069	2492.91
743.258	2460.17
743.447	2519.84
743.636	2528.18
743.825	2477.8
744.014	2512.29
744.204	2531.47
744.393	2500.28
744.582	2528.76
744.771	2595.02
744.96	2493.69
745.149	2587.46
745.338	2517.13
745.527	2565.57
745.716	2550.46
745.905	2580.49
746.094	2622.14
746.283	2607.22
746.471	2580.29
746.66	2657.79
746.849	2598.7
747.038	2654.89
747.227	2591.72
747.416	2671.74
747.604	2604.32
747.793	2611.68
747.982	2645.2
748.171	2608
748.359	2679.69
748.548	2645
748.737	2633.57
748.926	2664.77
749.114	2606.64
749.303	2649.85
749.491	2652.37
749.68	2579.32
749.869	2667.67
750.057	2582.42
750.246	2622.53
750.434	2637.84
750.623	2608.77
750.811	2621.37
751	2684.53
751.188	2628.54
751.377	2620.79
751.565	2613.81
751.754	2635.12
751.942	2641.71
752.131	2703.32
752.319	2606.45
752.507	2565.76
752.696	2647.52
752.884	2694.6
753.072	2598.7
753.261	2631.06
753.449	2638.42
753.637	2617.49
753.825	2701.77
754.014	2634.93
754.202	2640.94
754.39	2733.16
754.578	2669.03
754.766	2640.74
754.955	2609.36
755.143	2708.75
755.331	2625.24
755.519	2645.2
755.707	2628.15
755.895	2634.16
756.083	2658.18
756.271	2625.63
756.459	2615.94
756.647	2632.99
756.835	2641.52
757.023	2612.65
757.211	2560.14
757.399	2570.41
757.587	2555.88
757.775	2563.05
757.963	2588.24
758.151	2570.22
758.339	2561.11
758.526	2517.52
758.714	2594.63
758.902	2466.95
759.09	2399.53
759.278	2267
759.465	2047.88
759.653	1790.39
759.841	1600.32
760.028	1413.16
760.216	1190.16
760.404	1150.63
760.591	933.44
760.779	784.26
760.967	687
761.154	539.55
761.342	632.75
761.529	584.12
761.717	641.85
761.905	626.74
762.092	677.7
762.28	614.53
762.467	648.25
762.655	558.15
762.842	595.55
763.029	611.43
763.217	584.5
763.404	613.57
763.592	653.09
763.779	565.71
763.966	637.2
764.154	674.6
764.341	728.84
764.528	711.21
764.716	753.26
764.903	775.15
765.09	852.26
765.277	903.41
765.465	1023.73
765.652	1084.37
765.839	1124.48
766.026	1233.56
766.213	1237.04
766.4	1344.77
766.588	1518.36
766.775	1520.3
766.962	1606.52
767.149	1653.02
767.336	1771.98
767.523	1723.74
767.71	1802.01
767.897	1935.7
768.084	2008.74
768.271	2027.14
768.458	2036.25
768.645	2138.94
768.832	2081.2
769.019	2132.16
769.206	2150.56
769.392	2198.03
769.579	2268.94
769.766	2255.96
769.953	2236.78
770.14	2289.48
770.327	2292.77
770.513	2292.19
770.7	2399.72
770.887	2273.79
771.073	2334.82
771.26	2360.39
771.447	2292.19
771.634	2341.79
771.82	2419.68
772.007	2273.98
772.193	2360.78
772.38	2377.25
772.567	2341.4
772.753	2323.38
772.94	2385.58
773.126	2394.1
773.313	2378.02
773.499	2375.11
773.686	2423.36
773.872	2327.65
774.059	2350.9
774.245	2290.06
774.432	2320.28
774.618	2286.96
774.804	2360
774.991	2296.26
775.177	2342.76
775.363	2328.23
775.55	2356.13
775.736	2322.61
775.922	2333.85
776.109	2352.83
776.295	2324.93
776.481	2355.74
776.667	2375.7
776.853	2308.47
777.04	2266.62
777.226	2279.21
777.412	2383.06
777.598	2285.02
777.784	2270.1
777.97	2300.52
778.156	2302.27
778.342	2267.2
778.528	2255.57
778.715	2205.59
778.901	2261.19
779.087	2265.65
779.272	2266.81
779.458	2222.64
779.644	2268.17
779.83	2240.85
780.016	2285.99
780.202	2233.68
780.388	2214.89
780.574	2160.44
780.76	2176.14
780.946	2254.22
781.131	2204.42
781.317	2200.94
781.503	2177.11
781.689	2205.78
781.874	2280.18
782.06	2184.27
782.246	2152.69
782.432	2180.98
782.617	2231.16
782.803	2221.28
782.989	2136.81
783.174	2159.47
783.36	2058.34
783.545	2155.79
783.731	2155.79
783.916	2074.61
784.102	2160.06
784.288	2076.55
784.473	2105.61
784.659	2070.35
784.844	2142.23
785.029	2068.99
785.215	2086.04
785.4	2072.68
785.586	2150.95
785.771	2058.92
785.956	2080.62
786.142	2098.83
786.327	2054.46
786.512	2073.06
786.698	2047.49
786.883	2001.38
787.068	2021.91
787.254	2046.33
787.439	2022.5
787.624	2007.19
787.809	1987.23
787.994	2010.68
788.18	2099.8
788.365	1979.48
788.55	1978.13
788.735	1975.61
788.92	1977.93
789.105	1915.55
789.29	1989.56
789.475	1945.38
789.66	1958.95
789.845	1892.49
790.03	1941.9
790.215	1954.68
790.4	1963.98
790.585	1944.61
790.77	1956.23
790.955	1854.52
791.14	1944.8
791.325	1971.15
791.51	1853.16
791.695	1913.8
791.879	1884.55
792.064	1874.08
792.249	1951.39
792.434	1875.44
792.618	1921.55
792.803	1915.55
792.988	1875.05
793.173	1851.61
793.357	1917.68
793.542	1847.93
793.727	1921.17
793.911	1944.61
794.096	1918.45
794.281	1920.78
794.465	1957.78
794.65	1911.87
794.834	1943.25
795.019	1991.88
795.203	1939.57
795.388	1985.3
795.572	1976.38
795.757	1942.48
795.941	1948.48
796.126	1940.93
796.31	1870.79
796.494	1966.31
796.679	1921.75
796.863	1889.97
797.048	1977.74
797.232	1908.96
797.416	1891.52
797.601	1937.44
797.785	1988.01
797.969	1990.72
798.153	1937.05
798.338	1929.3
798.522	1985.88
798.706	1967.66
798.89	1985.49
799.074	2025.01
799.258	2033.34
799.443	1952.36
799.627	1969.6
799.811	1982.97
799.995	1954.49
800.179	1917.87
800.363	1956.43
800.547	1952.16
800.731	1996.53
800.915	1891.52
801.099	1914.77
801.283	1940.15
801.467	1921.55
801.651	1921.17
801.835	1980.84
802.019	1987.81
802.202	1938.21
802.386	1897.33
802.57	1919.42
802.754	1917.29
802.938	1895.59
803.121	1936.28
803.305	2000.8
803.489	1937.63
803.673	1968.83
803.856	1934.73
804.04	1907.02
804.224	1911.67
804.407	1946.93
804.591	1914.58
804.775	1924.27
804.958	1957.4
805.142	2040.32
805.326	1922.13
805.509	1948.1
805.693	1982.2
805.876	1970.38
806.06	1989.75
806.243	1975.03
806.427	1977.16
806.61	1976.38
806.794	1921.55
806.977	2017.46
807.16	1984.13
807.344	1955.85
807.527	1978.32
807.71	1949.45
807.894	1935.7
808.077	2004.09
808.26	1912.06
808.444	1920.97
808.627	1982.97
808.81	1930.66
808.993	1881.25
809.177	1879.9
809.36	1904.31
809.543	1902.95
809.726	1807.24
809.909	1825.65
810.092	1850.06
810.276	1829.52
810.459	1838.05
810.642	1808.6
810.825	1770.82
811.008	1814.22
811.191	1740.98
811.374	1731.87
811.557	1777.02
811.74	1784.19
811.923	1715.79
812.106	1671.43
812.289	1645.46
812.472	1691.38
812.654	1675.3
812.837	1668.52
813.02	1588.89
813.203	1587.53
813.386	1529.8
813.569	1507.32
813.751	1470.32
813.934	1503.83
814.117	1507.51
814.3	1462.95
814.482	1422.85
814.665	1381.77
814.848	1364.14
815.03	1302.14
815.213	1332.75
815.396	1321.52
815.578	1306.6
815.761	1260.68
815.943	1350.19
816.126	1246.73
816.309	1258.94
816.491	1181.83
816.674	1139.59
816.856	1176.59
817.039	1173.11
817.221	1233.94
817.403	1185.31
817.586	1202.94
817.768	1206.82
817.951	1119.44
818.133	1158.77
818.315	1170.98
818.498	1212.05
818.68	1236.27
818.862	1241.89
819.045	1263.01
819.227	1230.84
819.409	1201.2
819.591	1230.84
819.774	1208.18
819.956	1184.93
820.138	1234.33
820.32	1240.53
820.502	1298.27
820.684	1340.89
820.866	1354.07
821.048	1390.88
821.231	1380.03
821.413	1398.63
821.595	1343.41
821.777	1374.02
821.959	1346.51
822.141	1425.17
822.323	1311.83
822.505	1245.37
822.686	1223.68
822.868	1203.91
823.05	1097.55
823.232	1065.19
823.414	1014.82
823.596	1048.92
823.778	1091.73
823.96	1069.45
824.141	1111.69
824.323	1085.53
824.505	1160.32
824.687	1231.81
824.868	1250.8
825.05	1329.07
825.232	1347.29
825.413	1391.85
825.595	1352.52
825.777	1277.73
825.958	1341.28
826.14	1327.91
826.321	1364.14
826.503	1309.31
826.685	1333.72
826.866	1378.87
827.048	1355.62
827.229	1314.35
827.411	1303.89
827.592	1249.83
827.773	1254.09
827.955	1206.24
828.136	1216.7
828.318	1190.74
828.499	1244.41
828.68	1177.56
828.862	1189.77
829.043	1250.61
829.224	1190.74
829.406	1181.44
829.587	1147.92
829.768	1185.51
829.949	1230.07
830.131	1195.58
830.312	1250.02
830.493	1185.89
830.674	1250.41
830.855	1207.4
831.036	1189.77
831.218	1225.23
831.399	1259.52
831.58	1208.18
831.761	1219.61
831.942	1212.44
832.123	1207.21
832.304	1212.24
832.485	1194.81
832.666	1204.69
832.847	1214.57
833.028	1244.99
833.209	1173.69
833.389	1193.26
833.57	1138.43
833.751	1160.32
833.932	1231.62
834.113	1219.8
834.294	1171.56
834.475	1225.23
834.655	1250.61
834.836	1271.34
835.017	1215.54
835.198	1151.6
835.378	1213.02
835.559	1274.24
835.74	1203.33
835.92	1199.84
836.101	1213.41
836.281	1280.25
836.462	1254.87
836.643	1266.88
836.823	1299.24
837.004	1254.87
837.184	1313.19
837.365	1280.25
837.545	1278.7
837.726	1248.67
837.906	1326.75
838.087	1255.84
838.267	1261.26
838.448	1224.64
838.628	1269.21
838.808	1270.76
838.989	1314.35
839.169	1226.58
839.349	1294.01
839.53	1260.29
839.71	1280.44
839.89	1265.52
840.07	1319
840.251	1254.09
840.431	1289.55
840.611	1280.64
840.791	1249.64
840.971	1258.55
841.151	1268.43
841.332	1258.16
841.512	1306.02
841.692	1221.16
841.872	1250.02
842.052	1257.39
842.232	1248.67
842.412	1229.29
842.592	1257.58
842.772	1255.64
842.952	1300.59
843.132	1219.8
843.312	1225.23
843.492	1233.17
843.672	1273.27
843.851	1182.79
844.031	1233.94
844.211	1236.85
844.391	1221.74
844.571	1226.39
844.751	1245.96
844.93	1245.76
845.11	1210.69
845.29	1234.91
845.47	1269.98
845.649	1208.56
845.829	1282.96
846.009	1211.08
846.188	1249.64
846.368	1252.93
846.547	1224.64
846.727	1258.55
846.907	1201.98
847.086	1207.21
847.266	1270.76
847.445	1216.31
847.625	1215.15
847.804	1190.54
847.984	1226.39
848.163	1222.51
848.343	1173.11
848.522	1182.02
848.701	1211.86
848.881	1163.61
849.06	1204.11
849.239	1182.02
849.419	1183.18
849.598	1114.6
849.777	1150.44
849.957	1124.48
850.136	1067.51
850.315	1090.57
850.494	1113.24
850.674	1080.3
850.853	1131.65
851.032	1112.85
851.211	1171.94
851.39	1146.56
851.569	1074.68
851.748	1095.03
851.927	1155.09
852.107	1105.88
852.286	1079.14
852.465	1073.52
852.644	1129.32
852.823	1109.56
853.002	1100.84
853.181	1096.96
853.359	1091.35
853.538	1052.02
853.717	1151.41
853.896	1016.17
854.075	1007.26
854.254	975.49
854.433	926.47
854.611	996.6
854.79	921.04
854.969	982.27
855.148	1006.48
855.327	955.34
855.505	1007.65
855.684	982.07
855.863	1006.29
856.041	975.49
856.22	1002.8
856.399	997.57
856.577	1104.52
856.756	1059.18
856.934	1155.67
857.113	1131.65
857.291	1081.08
857.47	1054.34
857.648	1090.57
857.827	1093.48
858.005	1122.73
858.184	1051.63
858.362	1121.96
858.541	1089.02
858.719	1075.07
858.898	1040
859.076	1029.35
859.254	1142.11
859.433	1041.75
859.611	1033.42
859.789	1039.03
859.967	1074.49
860.146	1094.83
860.324	1026.25
860.502	1022.57
860.68	960.37
860.859	1010.55
861.037	1016.37
861.215	1042.91
861.393	1080.11
861.571	1025.28
861.749	979.94
861.927	1018.11
862.105	1023.92
862.283	1033.61
862.461	990.79
862.639	960.76
862.817	984.4
862.995	1011.33
863.173	979.17
863.351	987.88
863.529	995.25
863.707	1048.14
863.885	1009.2
864.063	923.95
864.241	973.74
864.418	1024.12
864.596	937.32
864.774	966.19
864.952	990.4
865.129	996.22
865.307	976.26
865.485	926.85
865.663	985.56
865.84	911.74
866.018	914.65
866.196	806.54
866.373	862.72
866.551	843.16
866.728	800.53
866.906	834.24
867.084	846.06
867.261	905.54
867.439	870.09
867.616	909.42
867.794	891.59
867.971	920.65
868.149	921.82
868.326	956.89
868.503	941
868.681	906.12
868.858	910.19
869.035	874.93
869.213	948.94
869.39	903.99
869.567	983.23
869.745	884.04
869.922	947.97
870.099	916
870.276	927.44
870.454	893.34
870.631	948.36
870.808	904.96
870.985	947.59
871.162	955.92
871.339	944.87
871.517	866.21
871.694	886.17
871.871	903.8
872.048	887.33
872.225	860.79
872.402	884.42
872.579	860.79
872.756	915.42
872.933	856.14
873.11	847.22
873.287	910.58
873.463	857.3
873.64	869.31
873.817	894.11
873.994	856.52
874.171	838.89
874.348	869.51
874.524	798.4
874.701	850.91
874.878	799.76
875.055	866.99
875.231	848.58
875.408	848.58
875.585	804.02
875.762	866.79
875.938	860.01
876.115	853.42
876.291	824.17
876.468	837.15
876.645	806.34
876.821	806.34
876.998	797.43
877.174	843.74
877.351	812.16
877.527	829.59
877.704	825.14
877.88	840.44
878.057	795.3
878.233	841.02
878.409	790.84
878.586	819.91
878.762	813.71
878.938	800.53
879.115	740.47
879.291	806.34
879.467	760.04
879.644	771.86
879.82	765.08
879.996	771.28
880.172	747.83
880.349	761.01
880.525	798.79
880.701	757.52
880.877	758.1
881.053	780.96
881.229	754.03
881.405	819.52
881.581	735.43
881.757	772.24
881.933	801.89
882.109	792.39
882.285	757.13
882.461	736.79
882.637	747.64
882.813	755.58
882.989	730.01
883.165	792.39
883.341	734.85
883.517	797.82
883.693	748.03
883.869	790.07
884.044	710.63
884.22	782.51
884.396	802.08
884.572	764.88
884.747	811.19
884.923	779.99
885.099	792.39
885.275	801.89
885.45	743.38
885.626	761.78
885.801	755
885.977	771.86
886.153	699.01
886.328	766.04
886.504	738.73
886.679	769.92
886.855	721.29
887.03	791.81
887.206	764.3
887.381	757.91
887.557	783.29
887.732	758.88
887.908	794.33
888.083	770.31
888.258	733.88
888.434	759.07
888.609	760.62
888.784	805.57
888.96	749.38
889.135	749.77
889.31	711.6
889.485	746.67
889.661	716.83
889.836	784.45
890.011	753.64
890.186	734.85
890.361	736.79
890.537	769.14
890.712	770.5
890.887	773.41
891.062	744.54
891.237	778.25
891.412	750.54
891.587	736.59
891.762	770.31
891.937	813.51
892.112	722.06
892.287	725.74
892.462	697.85
892.637	684.28
892.812	672.27
892.987	703.27
893.161	674.01
893.336	660.26
893.511	688.55
893.686	713.35
893.861	682.35
894.035	693.39
894.21	706.76
894.385	622.28
894.56	662.2
894.734	625.58
894.909	625.58
895.084	612.98
895.258	611.82
895.433	615.12
895.608	601.94
895.782	573.27
895.957	574.82
896.131	582.76
896.306	515.92
896.48	525.99
896.655	554.08
896.829	483.95
897.004	507.39
897.178	507.59
897.353	487.44
897.527	520.18
897.701	536.26
897.876	469.42
898.05	551.76
898.224	538.2
898.399	525.99
898.573	491.89
898.747	424.86
898.921	465.35
899.096	404.32
899.27	403.74
899.444	401.22
899.618	411.68
899.792	449.07
899.967	435.32
900.141	440.16
900.315	416.14
900.489	404.9
900.663	439.58
900.837	427.37
901.011	376.61
901.185	510.69
901.359	421.95
901.533	440.16
901.707	434.93
901.881	436.48
902.055	407.61
902.229	436.29
902.403	512.82
902.576	441.91
902.75	417.88
902.924	536.65
903.098	484.53
903.272	519.02
903.446	560.67
903.619	504.1
903.793	579.66
903.967	539.55
904.14	584.31
904.314	554.67
904.488	540.72
904.661	563.38
904.835	546.72
905.009	580.63
905.182	609.11
905.356	561.45
905.529	524.83
905.703	542.27
905.876	495.19
906.05	492.67
906.223	521.54
906.397	485.69
906.57	470.19
906.744	411.29
906.917	437.06
907.09	460.7
907.264	453.34
907.437	389.59
907.61	379.52
907.784	421.76
907.957	426.6
908.13	382.62
908.304	433.57
908.477	378.16
908.65	372.93
908.823	361.11
908.996	442.87
909.17	386.69
909.343	372.35
909.516	388.82
909.689	367.31
909.862	368.47
910.035	385.72
910.208	359.76
910.381	386.69
910.554	450.82
910.727	391.14
910.9	359.37
911.073	376.42
911.246	441.52
911.419	423.69
911.592	401.61
911.765	380.68
911.938	362.28
912.11	396.96
912.283	387.07
912.456	437.84
912.629	386.69
912.802	358.79
912.974	337.28
913.147	310.35
913.32	284.58
913.493	301.44
913.665	306.86
913.838	326.24
914.01	325.66
914.183	331.28
914.356	334.76
914.528	382.42
914.701	399.28
914.873	373.12
915.046	304.93
915.218	317.71
915.391	226.26
915.563	275.86
915.736	301.24
915.908	372.74
916.081	319.46
916.253	297.95
916.425	333.02
916.598	325.46
916.77	327.98
916.942	311.9
917.115	262.11
917.287	328.76
917.459	301.83
917.632	284.19
917.804	237.31
917.976	336.31
918.148	319.26
918.32	329.92
918.493	343.48
918.665	373.9
918.837	335.54
919.009	368.67
919.181	369.25
919.353	341.35
919.525	341.93
919.697	322.75
919.869	326.43
920.041	409.36
920.213	447.72
920.385	383.78
920.557	359.76
920.729	362.08
920.901	348.91
921.073	339.8
921.244	369.64
921.416	385.91
921.588	310.35
921.76	344.06
921.932	431.06
922.103	352.98
922.275	342.71
922.447	357.63
922.619	285.36
922.79	354.53
922.962	336.31
923.134	346.39
923.305	294.46
923.477	288.26
923.648	274.12
923.82	327.01
923.991	273.35
924.163	264.63
924.335	312.68
924.506	281.68
924.677	326.24
924.849	260.17
925.02	307.44
925.192	336.12
925.363	310.35
925.535	316.94
925.706	279.54
925.877	345.61
926.049	274.51
926.22	304.73
926.391	298.53
926.562	329.92
926.734	297.18
926.905	327.59
927.076	254.94
927.247	268.5
927.419	243.9
927.59	226.26
927.761	267.15
927.932	241.57
928.103	267.34
928.274	195.46
928.445	180.54
928.616	246.61
928.787	207.08
928.958	237.7
929.129	217.93
929.3	218.32
929.471	156.9
929.642	149.15
929.813	109.82
929.984	178.99
930.155	125.71
930.326	184.8
930.496	118.73
930.667	70.49
930.838	141.6
931.009	106.14
931.18	102.65
931.35	117.38
931.521	130.36
931.692	84.83
931.863	39.1
932.033	116.99
932.204	118.35
932.374	112.53
932.545	61.97
932.716	127.26
932.886	87.15
933.057	31.35
933.227	50.92
933.398	121.83
933.568	51.5
933.739	-2.74
933.909	18.76
934.08	92
934.25	-8.75
934.421	24.19
934.591	51.31
934.761	24.57
934.932	-0.03
935.102	39.69
935.272	8.3
935.443	34.45
935.613	21.67
935.783	51.31
935.953	-10.69
936.123	151.28
936.294	15.85
936.464	21.28
936.634	43.17
936.804	-1.19
936.974	-14.76
937.144	30.77
937.314	28.64
937.484	11.4
937.655	18.57
937.825	54.8
937.995	19.54
938.165	56.15
938.334	36.39
938.504	49.95
938.674	9.07
938.844	18.95
939.014	104.98
939.184	47.24
939.354	119.9
939.524	107.69
939.694	59.06
939.863	68.75
940.033	134.23
940.203	92.77
940.373	79.02
940.542	75.14
940.712	68.17
940.882	104.59
941.051	105.75
941.221	93.16
941.391	96.65
941.56	51.31
941.73	39.49
941.899	138.3
942.069	48.99
942.238	88.12
942.408	67.59
942.577	116.99
942.747	64.68
942.916	19.54
943.086	66.42
943.255	84.05
943.425	59.06
943.594	31.74
943.763	0.16
943.933	52.67
944.102	-32.78
944.271	56.35
944.441	81.15
944.61	40.27
944.779	57.7
944.948	126.48
945.117	11.01
945.287	49.37
945.456	9.85
945.625	36.97
945.794	66.23
945.963	15.27
946.132	74.56
946.301	35.81
946.47	63.71
946.639	4.23
946.808	43.56
946.977	61.19
947.146	78.24
947.315	7.52
947.484	76.89
947.653	48.21
947.822	28.06
947.991	44.53
948.16	89.29
948.329	109.82
948.498	60.22
948.666	63.13
948.835	85.41
949.004	26.9
949.173	27.09
949.341	53.83
949.51	80.76
949.679	92.58
949.847	82.89
950.016	142.37
950.185	105.37
950.353	38.52
950.522	32.9
950.69	96.26
950.859	17.4
951.028	73.2
951.196	44.34
951.365	41.62
951.533	41.82
951.701	81.92
951.87	105.75
952.038	10.43
952.207	64.87
952.375	112.53
952.543	37.17
952.712	54.22
952.88	24.38
953.048	93.55
953.217	41.82
953.385	44.53
953.553	117.77
953.721	26.32
953.89	46.85
954.058	21.86
954.226	23.02
954.394	47.44
954.562	11.79
954.73	35.62
954.898	52.28
955.067	71.85
955.235	61.19
955.403	85.6
955.571	90.84
955.739	46.47
955.907	19.34
956.075	45.89
956.243	31.35
956.41	65.26
956.578	7.52
956.746	19.92
956.914	67.39
957.082	68.55
957.25	77.27
957.418	41.43
957.585	60.8
957.753	104.4
957.921	45.89
958.089	54.02
958.256	85.99
958.424	63.71
958.592	58.29
958.759	23.22
958.927	68.55
959.095	34.84
959.262	58.87
959.43	61.58
959.597	49.18
959.765	44.53
959.932	12.76
960.1	87.74
960.267	65.07
960.435	52.47
960.602	106.72
960.77	27.67
960.937	21.28
961.104	51.5
961.272	17.79
961.439	60.03
961.606	69.91
961.774	103.62
961.941	40.07
962.108	70.49
962.275	66.62
962.443	106.14
962.61	67.59
962.777	116.41
962.944	114.67
963.111	96.84
963.278	96.07
963.446	75.92
963.613	55.38
963.78	74.95
963.947	70.88
964.114	78.44
964.281	149.93
964.448	90.45
964.615	56.74
964.782	54.02
964.949	108.66
965.116	88.7
965.282	127.26
965.449	78.82
965.616	31.16
965.783	97.04
965.95	85.41
966.117	43.95
966.283	72.24
966.45	95.1
966.617	89.87
966.784	123.38
966.95	104.4
967.117	121.25
967.284	30.97
967.45	32.32
967.617	110.4
967.784	78.05
967.95	99.36
968.117	55.19
968.283	110.79
968.45	157.1
968.616	106.14
968.783	144.31
968.949	85.99
969.116	130.55
969.282	83.47
969.449	94.9
969.615	115.05
969.781	58.09
969.948	64.29
970.114	32.9
970.28	123
970.447	82.5
970.613	118.54
970.779	61.97
970.945	104.01
971.112	98.39
971.278	82.89
971.444	91.22
971.61	131.33
971.776	75.34
971.942	93.16
972.108	90.25
972.275	86.19
972.441	119.12
972.607	141.6
972.773	83.28
972.939	63.13
973.105	88.7
973.271	49.18
973.437	67.59
973.602	75.14
973.768	80.18
973.934	87.35
974.1	97.62
974.266	3.84
974.432	90.06
974.598	53.25
974.763	116.6
974.929	42.2
975.095	116.6
975.261	61.19
975.426	46.27
975.592	66.62
975.758	107.69
975.923	15.08
976.089	46.85
976.255	86.96
976.42	92.39
976.586	102.46
976.751	96.65
976.917	175.12
977.082	105.56
977.248	39.88
977.413	15.47
977.579	71.27
977.744	77.08
977.91	65.84
978.075	55.38
978.24	97.04
978.406	68.94
978.571	62.16
978.736	22.25
978.902	92.58
979.067	41.62
979.232	21.28
979.397	80.95
979.563	124.55
979.728	60.42
979.893	57.12
980.058	65.65
980.223	108.27
980.388	73.59
980.554	82.31
980.719	59.25
980.884	58.29
981.049	104.2
981.214	57.9
981.379	96.45
981.544	73.98
981.709	61.58
981.874	66.42
982.039	68.17
982.204	105.56
982.368	73.59
982.533	36
982.698	81.73
982.863	119.12
983.028	57.32
983.193	67
983.357	98.78
983.522	65.65
983.687	56.54
983.852	77.27
984.016	69.52
984.181	89.87
984.346	87.74
984.51	67.97
984.675	65.65
984.839	96.65
985.004	68.75
985.168	110.02
985.333	90.45
985.498	81.54
985.662	102.65
985.827	74.95
985.991	57.12
986.155	67.39
986.32	114.86
986.484	123.77
986.649	86.77
986.813	39.88
986.977	52.86
987.142	69.52
987.306	20.89
987.47	63.32
987.634	48.4
987.799	106.14
987.963	68.17
988.127	94.9
988.291	121.45
988.455	72.82
988.62	74.75
988.784	76.89
988.948	117.38
989.112	29.03
989.276	62.74
989.44	46.08
989.604	48.79
989.768	54.99
989.932	137.53
990.096	30.58
990.26	47.24
990.424	42.01
990.588	41.04
990.752	123
990.915	99.17
991.079	59.64
991.243	36.97
991.407	91.42
991.571	59.06
991.734	83.67
991.898	80.37
992.062	162.33
992.226	72.82
992.389	41.43
992.553	40.65
992.717	43.75
992.88	65.65
993.044	65.07
993.207	61.19
993.371	70.1
993.535	89.48
993.698	91.03
993.862	113.89
994.025	116.8
994.189	77.47
994.352	77.27
994.515	81.54
994.679	111.57
994.842	42.2
995.006	87.93
995.169	42.4
995.332	47.44
995.496	97.81
995.659	6.75
995.822	60.8
995.985	64.87
996.149	97.23
996.312	74.75
996.475	121.83
996.638	46.08
996.801	120.48
996.964	115.25
997.128	73.59
997.291	56.15
997.454	70.1
997.617	27.67
997.78	91.42
997.943	42.01
998.106	63.52
998.269	38.33
998.432	44.34
998.595	52.86
998.758	14.89
998.92	19.15
999.083	-10.3
999.246	74.37
999.409	26.12
999.572	20.12
999.735	37.75
999.897	65.84
1000.06	57.7
1000.223	45.3
1000.386	76.3
1000.548	52.28
1000.711	79.79
1000.874	62.35
1001.036	-6.81
1001.199	107.88
1001.361	23.6
1001.524	54.8
1001.687	73.01
1001.849	44.92
1002.012	80.18
1002.174	69.14
1002.337	75.72
1002.499	36.39
1002.661	65.84
1002.824	9.85
1002.986	34.07
1003.149	46.66
1003.311	45.89
1003.473	99.75
1003.636	39.49
1003.798	61
1003.96	70.49
1004.123	16.63
1004.285	22.44
1004.447	35.23
1004.609	29.22
1004.771	108.66
1004.933	15.85
1005.096	61.97
1005.258	10.04
1005.42	30.97
1005.582	74.17
1005.744	70.1
1005.906	4.04
1006.068	41.43
1006.23	16.44
1006.392	3.46
1006.554	19.34
1006.716	109.82
1006.878	72.43
1007.04	-2.55
1007.202	12.17
1007.363	40.27
1007.525	64.1
1007.687	44.53
1007.849	76.5
1008.011	5.01
1008.172	27.67
1008.334	21.47
1008.496	59.64
1008.658	31.16
1008.819	24.96
1008.981	23.22
1009.143	17.21
1009.304	25.15
1009.466	67.2
1009.627	81.54
1009.789	140.05
1009.95	9.85
1010.112	35.23
1010.273	52.28
1010.435	-0.81
1010.596	33.87
1010.758	30.58
1010.919	39.1
1011.081	-8.17
1011.242	45.11
1011.403	71.07
1011.565	33.49
1011.726	53.25
1011.887	12.37
1012.049	24.77
1012.21	55.77
1012.371	80.18
1012.532	-22.51
1012.693	17.79
1012.855	12.56
1013.016	35.42
1013.177	68.94
1013.338	41.62
1013.499	77.47
1013.66	48.99
1013.821	45.11
1013.982	9.46
1014.143	21.47
1014.304	43.37
1014.465	38.72
1014.626	65.65
1014.787	19.92
1014.948	96.65
1015.109	-32.39
1015.27	62.74
1015.431	20.31
1015.592	15.27
1015.752	79.21
1015.913	39.88
1016.074	56.54
1016.235	31.35
1016.395	10.62
1016.556	34.65
1016.717	-8.56
1016.877	114.28
1017.038	-4.1
1017.199	24.19
1017.359	32.13
1017.52	59.06
1017.681	25.93
1017.841	19.92
1018.002	32.32
1018.162	29.42
1018.323	69.52
1018.483	42.4
1018.644	13.92
1018.804	-21.54
1018.964	-12.04
1019.125	29.03
1019.285	45.89
1019.446	2.49
1019.606	-19.99
1019.766	-34.33
1019.926	35.04
1020.087	57.51
1020.247	-20.18
1020.407	65.65
1020.567	70.49
1020.728	27.29
1020.888	-5.07
1021.048	36.78
1021.208	-1
1021.368	-38.59
1021.528	49.95
1021.688	46.47
1021.848	64.29
1022.008	56.54
1022.168	39.49
1022.328	39.1
1022.488	46.27
1022.648	10.04
1022.808	22.44
1022.968	27.29
1023.128	13.72
1023.288	-1.58
1023.448	22.05
1023.608	63.13
1023.767	29.22
1023.927	-10.88
1024.087	-7.2
1024.247	-13.79
1024.406	5.59
1024.566	-10.11
1024.726	-25.22
1024.885	43.56
1025.045	37.94
1025.205	44.34
1025.364	2.1
1025.524	28.64
1025.683	29.03
1025.843	11.21
1026.003	16.44
1026.162	87.93
1026.321	50.73
1026.481	15.47
1026.64	17.21
1026.8	29.8
1026.959	42.79
1027.119	30.77
1027.278	-22.31
1027.437	8.49
1027.597	38.14
1027.756	47.63
1027.915	33.49
1028.074	19.54
1028.234	-8.36
1028.393	31.35
1028.552	17.02
1028.711	-56.41
1028.87	31.35
1029.03	-5.07
1029.189	18.37
1029.348	-32
1029.507	-4.1
1029.666	17.79
1029.825	-20.57
1029.984	1.71
1030.143	17.6
1030.302	3.07
1030.461	-30.45
1030.62	26.32
1030.779	23.8
1030.938	-3.33
1031.097	-11.66
1031.255	45.5
1031.414	68.36
1031.573	45.69
1031.732	-6.81
1031.891	7.52
1032.049	64.49
1032.208	39.49
1032.367	-19.79
1032.525	3.46
1032.684	28.64
1032.843	27.67
1033.001	-11.46
1033.16	132.68
1033.319	34.26
1033.477	42.98
1033.636	15.27
1033.794	-53.12
1033.953	23.22
1034.111	42.4
1034.27	-18.83
1034.428	10.82
1034.587	-20.57
1034.745	24.38
1034.903	25.15
1035.062	21.28
1035.22	-20.18
1035.378	30.97
1035.537	-14.56
1035.695	23.8
1035.853	9.85
1036.011	37.75
1036.17	22.83
1036.328	-25.8
1036.486	-7.2
1036.644	18.76
1036.802	-62.42
1036.96	-22.31
1037.119	8.49
1037.277	2.87
1037.435	-32.58
1037.593	-25.99
1037.751	7.91
1037.909	30.97
1038.067	30.97
