Data from oakcork_FLMT105791__231__17-33-02-055.txt Node

Date: Mon Mar 20 17:33:02 GMT 2023
User: antho
Spectrometer: FLMT10579
Trigger mode: 0
Integration Time (sec): 1.000000E-1
Scans to average: 10
Electric dark correction enabled: true
Nonlinearity correction enabled: false
Boxcar width: 0
XAxis mode: Wavelengths
Number of Pixels in Spectrum: 3648
>>>>>Begin Spectral Data<<<<<
345.248	-155.89
345.464	-155.89
345.681	-155.89
345.898	-153.75
346.114	-165.57
346.331	-32.66
346.548	16.94
346.764	-0.69
346.981	-1.47
347.197	12.87
347.414	15.39
347.631	-30.73
347.847	60.34
348.064	-12.71
348.28	7.44
348.497	-48.74
348.713	14.03
348.93	25.46
349.146	37.86
349.363	1.05
349.579	29.34
349.796	2.41
350.012	-3.6
350.229	32.44
350.445	-8.44
350.661	-6.89
350.878	29.34
351.094	16.94
351.311	34.18
351.527	1.24
351.743	14.03
351.96	11.71
352.176	47.36
352.392	31.86
352.609	33.41
352.825	-3.41
353.041	8.22
353.257	-4.57
353.474	23.14
353.69	2.41
353.906	13.64
354.122	-9.61
354.339	62.27
354.555	15.19
354.771	-34.99
354.987	59.56
355.203	53.75
355.42	-28.21
355.636	3.37
355.852	-28.59
356.068	21.59
356.284	-8.06
356.5	64.79
356.716	27.79
356.932	22.36
357.148	51.42
357.364	-1.28
357.58	40.19
357.796	59.17
358.012	34.76
358.228	27.98
358.444	-51.26
358.66	77.77
358.876	27.59
359.092	3.57
359.308	43.29
359.524	26.82
359.74	26.62
359.956	0.08
360.172	48.13
360.388	53.36
360.604	0.08
360.819	80.68
361.035	27.98
361.251	59.56
361.467	14.22
361.683	45.42
361.898	18.29
362.114	38.25
362.33	21.2
362.546	46.77
362.762	7.64
362.977	16.36
363.193	-14.06
363.409	43.29
363.624	-5.93
363.84	7.83
364.056	-1.66
364.271	38.25
364.487	29.14
364.703	36.51
364.918	4.15
365.134	12.29
365.35	-5.15
365.565	100.64
365.781	0.86
365.996	30.31
366.212	91.53
366.427	71.57
366.643	27.21
366.858	18.49
367.074	-20.07
367.289	92.69
367.505	106.84
367.72	-21.23
367.936	1.05
368.151	68.47
368.367	43.87
368.582	18.68
368.798	32.05
369.013	72.35
369.228	22.75
369.444	25.27
369.659	68.09
369.874	41.54
370.09	61.3
370.305	-24.53
370.52	38.83
370.736	84.94
370.951	16.36
371.166	83
371.381	77.39
371.597	48.13
371.812	17.13
372.027	29.34
372.242	10.74
372.458	95.21
372.673	-0.69
372.888	35.54
373.103	57.24
373.318	122.14
373.533	57.62
373.749	51.62
373.964	-14.64
374.179	62.47
374.394	15
374.609	73.32
374.824	24.3
375.039	59.56
375.254	15
375.469	102.96
375.684	55.1
375.899	78.55
376.114	29.92
376.329	54.14
376.544	63.44
376.759	57.24
376.974	6.67
377.189	15.58
377.404	40.38
377.619	63.05
377.834	2.99
378.049	16.94
378.264	-10.58
378.478	35.34
378.693	27.01
378.908	38.44
379.123	26.43
379.338	67.31
379.553	32.24
379.767	52.97
379.982	38.06
380.197	53.36
380.412	58.2
380.626	49.1
380.841	145
381.056	60.14
381.271	93.27
381.485	40.77
381.7	11.32
381.915	42.71
382.129	27.21
382.344	38.44
382.559	46.58
382.773	81.45
382.988	-12.9
383.202	39.61
383.417	32.82
383.632	131.44
383.846	47.94
384.061	42.12
384.275	21.97
384.49	64.4
384.704	53.55
384.919	60.53
385.133	37.28
385.348	85.72
385.562	24.11
385.777	86.3
385.991	50.65
386.206	27.01
386.42	18.87
386.634	86.1
386.849	59.17
387.063	44.84
387.277	13.84
387.492	29.34
387.706	7.44
387.92	27.4
388.135	79.9
388.349	31.08
388.563	32.24
388.778	49.87
388.992	93.47
389.206	72.54
389.42	137.25
389.635	72.93
389.849	82.42
390.063	117.69
390.277	68.86
390.491	95.4
390.706	83.39
390.92	107.03
391.134	74.29
391.348	74.87
391.562	43.67
391.776	62.27
391.99	40.38
392.205	79.32
392.419	36.12
392.633	64.6
392.847	101.6
393.061	37.47
393.275	101.99
393.489	76.42
393.703	54.14
393.917	95.21
394.131	21.78
394.345	82.42
394.559	88.82
394.773	36.51
394.986	68.28
395.2	73.7
395.414	90.75
395.628	55.1
395.842	69.44
396.056	54.52
396.27	26.82
396.484	82.04
396.697	86.69
396.911	106.06
397.125	105.09
397.339	81.84
397.553	79.13
397.766	112.84
397.98	101.99
398.194	122.34
398.408	84.75
398.621	119.82
398.835	121.17
399.049	111.49
399.262	140.35
399.476	128.54
399.69	154.3
399.903	200.61
400.117	93.66
400.331	127.76
400.544	102.19
400.758	213.98
400.971	113.81
401.185	164.77
401.398	108.77
401.612	165.93
401.826	144.62
402.039	143.84
402.253	86.49
402.466	142.1
402.68	116.91
402.893	133.77
403.106	111.68
403.32	117.69
403.533	150.23
403.747	144.42
403.96	130.47
404.174	145.58
404.387	95.4
404.6	121.37
404.814	171.93
405.027	141.52
405.24	115.36
405.454	121.37
405.667	166.9
405.88	76.03
406.094	135.32
406.307	154.3
406.52	125.44
406.733	91.14
406.947	82.81
407.16	186.47
407.373	159.73
407.586	121.56
407.799	97.73
408.012	180.07
408.226	142.68
408.439	165.15
408.652	106.06
408.865	129.31
409.078	187.63
409.291	185.3
409.504	122.72
409.717	164.96
409.93	164.77
410.143	151.98
410.357	86.1
410.57	84.55
410.783	135.12
410.996	152.37
411.209	136.87
411.421	210.3
411.634	141.13
411.847	134.15
412.06	170
412.273	158.37
412.486	171.93
412.699	223.28
412.912	166.7
413.125	150.23
413.338	148.68
413.55	181.43
413.763	153.72
413.976	180.65
414.189	171.93
414.402	177.55
414.615	220.76
414.827	125.63
415.04	205.07
415.253	170.38
415.466	200.42
415.678	227.35
415.891	166.51
416.104	171.55
416.316	159.15
416.529	149.07
416.742	205.26
416.954	198.09
417.167	165.93
417.38	168.64
417.592	202.35
417.805	135.9
418.017	105.87
418.23	191.31
418.442	154.88
418.655	157.02
418.868	156.24
419.08	189.95
419.293	219.79
419.505	189.57
419.718	188.98
419.93	233.16
420.142	153.72
420.355	234.13
420.567	238.97
420.78	197.7
420.992	180.46
421.205	233.93
421.417	156.05
421.629	185.69
421.842	161.67
422.054	158.57
422.266	227.35
422.479	230.64
422.691	162.25
422.903	228.7
423.115	166.12
423.328	190.53
423.54	196.54
423.752	186.08
423.964	166.12
424.177	207.97
424.389	194.6
424.601	272.1
424.813	234.13
425.025	223.67
425.238	226.18
425.45	200.42
425.662	193.05
425.874	482.71
426.086	187.63
426.298	212.04
426.51	231.03
426.722	210.1
426.934	179.88
427.146	216.88
427.358	143.45
427.57	252.73
427.782	198.48
427.994	203.71
428.206	179.3
428.418	176.39
428.63	229.67
428.842	258.93
429.054	238.2
429.266	238
429.478	173.29
429.69	175.81
429.902	171.35
430.114	215.72
430.325	206.81
430.537	166.12
430.749	178.91
430.961	123.11
431.173	163.22
431.384	194.8
431.596	108.39
431.808	197.7
432.02	220.37
432.231	254.08
432.443	268.23
432.655	242.26
432.867	191.89
433.078	251.37
433.29	293.22
433.502	265.9
433.713	285.28
433.925	269.39
434.136	279.27
434.348	200.61
434.56	187.05
434.771	310.46
434.983	216.11
435.194	234.13
435.406	242.46
435.617	281.21
435.829	306.98
436.04	278.88
436.252	282.76
436.463	311.82
436.675	301.75
436.886	273.46
437.098	295.55
437.309	327.9
437.521	269
437.732	294.58
437.943	286.05
438.155	271.52
438.366	227.15
438.578	327.13
438.789	284.89
439	305.81
439.211	231.8
439.423	268.23
439.634	274.62
439.845	305.81
440.057	290.31
440.268	340.11
440.479	273.85
440.69	298.26
440.902	300.2
441.113	296.9
441.324	279.27
441.535	332.74
441.746	379.24
441.957	280.24
442.168	278.69
442.38	317.83
442.591	337.78
442.802	300
443.013	305.62
443.224	339.33
443.435	303.49
443.646	299.81
443.857	334.29
444.068	291.28
444.279	280.24
444.49	363.74
444.701	326.93
444.912	430.78
445.123	351.93
445.334	357.35
445.545	359.87
445.756	332.16
445.967	329.64
446.178	355.22
446.388	343.01
446.599	368.59
446.81	340.69
447.021	352.7
447.232	365.49
447.443	392.42
447.653	317.44
447.864	372.27
448.075	357.16
448.286	379.24
448.496	394.36
448.707	377.11
448.918	334.1
449.129	460.62
449.339	342.04
449.55	382.15
449.761	349.99
449.971	411.6
450.182	345.14
450.393	404.43
450.603	360.06
450.814	415.28
451.024	381.96
451.235	429.04
451.446	437.56
451.656	461.39
451.867	388.93
452.077	441.05
452.288	454.03
452.498	477.47
452.709	386.22
452.919	411.6
453.13	360.26
453.34	413.54
453.55	336.43
453.761	427.68
453.971	413.15
454.182	417.99
454.392	420.51
454.602	463.52
454.813	409.27
455.023	437.56
455.233	365.68
455.444	404.04
455.654	349.41
455.864	357.93
456.075	405.01
456.285	392.42
456.495	366.26
456.705	397.46
456.916	455.19
457.126	448.8
457.336	406.56
457.546	365.49
457.756	389.9
457.967	438.72
458.177	407.53
458.387	407.14
458.597	378.08
458.807	421.67
459.017	430.2
459.227	427.68
459.437	401.91
459.647	426.13
459.857	456.55
460.068	408.5
460.278	490.26
460.488	433.88
460.698	510.41
460.908	409.47
461.117	404.62
461.327	417.41
461.537	436.98
461.747	449.77
461.957	456.55
462.167	571.64
462.377	483.09
462.587	452.48
462.797	498.01
463.007	446.47
463.216	452.29
463.426	501.89
463.636	494.52
463.846	431.94
464.056	445.51
464.265	497.62
464.475	412.76
464.685	452.48
464.895	479.41
465.104	456.94
465.314	517.58
465.524	446.47
465.733	444.92
465.943	554.39
466.153	538.5
466.362	516.61
466.572	490.84
466.782	484.45
466.991	471.08
467.201	548.77
467.41	441.63
467.62	507.31
467.829	448.02
468.039	513.32
468.249	471.47
468.458	485.61
468.668	513.12
468.877	517.58
469.086	541.02
469.296	556.72
469.505	478.06
469.715	571.05
469.924	512.93
470.134	560.2
470.343	568.34
470.552	502.08
470.762	501.5
470.971	509.44
471.18	527.65
471.39	530.17
471.599	512.74
471.808	545.29
472.018	494.52
472.227	578.61
472.436	598.18
472.645	566.4
472.855	547.22
473.064	581.9
473.273	582.1
473.482	580.35
473.691	601.67
473.901	630.15
474.11	586.17
474.319	646.03
474.528	583.45
474.737	646.23
474.946	591.2
475.155	614.07
475.364	644.87
475.573	603.99
475.783	619.88
475.992	641.19
476.201	648.36
476.41	627.43
476.619	599.34
476.828	609.8
477.037	596.05
477.245	625.11
477.454	674.13
477.663	640.8
477.872	663.47
478.081	746.78
478.29	597.02
478.499	747.75
478.708	705.51
478.917	721.21
479.125	670.83
479.334	681.49
479.543	693.7
479.752	709.39
479.961	697.96
480.169	758.99
480.378	700.09
480.587	829.71
480.796	721.98
481.004	727.02
481.213	757.83
481.422	761.12
481.63	744.65
481.839	780.49
482.048	824.09
482.256	793.67
482.465	787.28
482.674	792.51
482.882	808.98
483.091	842.49
483.299	802.19
483.508	820.02
483.716	762.67
483.925	807.04
484.134	755.11
484.342	783.21
484.551	816.53
484.759	841.72
484.967	853.54
485.176	837.26
485.384	843.27
485.593	851.41
485.801	856.83
486.01	827.19
486.218	778.56
486.426	710.36
486.635	704.93
486.843	723.92
487.051	748.33
487.26	736.71
487.468	785.92
487.676	814.98
487.885	798.9
488.093	847.92
488.301	849.66
488.509	852.18
488.717	881.63
488.926	864
489.134	856.44
489.342	866.13
489.55	845.98
489.758	905.27
489.967	896.16
490.175	969.59
490.383	932
490.591	1009.89
490.799	903.52
491.007	979.47
491.215	945.18
491.423	920.57
491.631	920.96
491.839	922.51
492.047	972.11
492.255	889.57
492.463	871.94
492.671	906.24
492.879	975.02
493.087	923.48
493.295	953.12
493.503	938.4
493.711	988.39
493.919	1025.2
494.127	1000.59
494.334	1031.78
494.542	974.24
494.75	992.26
494.958	983.35
495.166	1050.19
495.374	1024.23
495.581	1038.18
495.789	1022.1
495.997	1087.58
496.205	972.11
496.412	1011.44
496.62	1008.54
496.828	1020.55
497.035	1022.68
497.243	1027.52
497.451	1038.57
497.658	1025.58
497.866	1060.07
498.074	1085.45
498.281	995.94
498.489	1090.68
498.696	1037.02
498.904	1005.05
499.112	994.39
499.319	1086.23
499.527	1005.82
499.734	1066.66
499.942	1009.12
500.149	1001.37
500.357	1045.93
500.564	1016.48
500.771	1047.48
500.979	1007.18
501.186	996.14
501.394	1018.22
501.601	1015.9
501.808	1037.6
502.016	995.17
502.223	1026.17
502.43	1041.08
502.638	1050
502.845	1001.75
503.052	1107.73
503.26	1026.75
503.467	1094.37
503.674	1042.05
503.881	1048.06
504.089	1141.06
504.296	1050.97
504.503	978.7
504.71	1021.9
504.917	1009.89
505.125	1070.53
505.332	1072.47
505.539	1073.25
505.746	1152.88
505.953	1114.13
506.16	1114.13
506.367	1190.27
506.574	1172.64
506.781	1205.58
506.988	1077.12
507.195	1136.6
507.402	1131.37
507.609	1135.63
507.816	1093.4
508.023	1090.68
508.23	1076.15
508.437	1105.8
508.644	1148.61
508.851	1166.25
509.058	1164.7
509.265	1142.03
509.472	1183.3
509.679	1244.13
509.885	1146.29
510.092	1183.88
510.299	1147.84
510.506	1137.76
510.713	1142.41
510.92	1156.36
511.126	1174.77
511.333	1213.91
511.54	1199.57
511.746	1248.01
511.953	1225.34
512.16	1261.18
512.367	1160.63
512.573	1158.11
512.78	1188.53
512.987	1187.56
513.193	1248.2
513.4	1123.04
513.606	1181.75
513.813	1173.22
514.02	1198.02
514.226	1245.68
514.433	1231.73
514.639	1143.19
514.846	1183.88
515.052	1158.88
515.259	1195.69
515.465	1223.21
515.672	1212.16
515.878	1287.34
516.085	1220.3
516.291	1252.27
516.497	1216.04
516.704	1204.61
516.91	1140.09
517.117	1092.82
517.323	1044.77
517.529	1117.23
517.736	1109.48
517.942	1117.42
518.148	1108.9
518.354	1167.21
518.561	1183.1
518.767	1164.7
518.973	1177.48
519.179	1212.94
519.386	1209.84
519.592	1185.62
519.798	1177.68
520.004	1253.24
520.21	1244.71
520.417	1272.23
520.623	1306.71
520.829	1334.61
521.035	1285.59
521.241	1321.82
521.447	1325.7
521.653	1447.95
521.859	1314.46
522.065	1315.04
522.271	1427.03
522.477	1364.06
522.683	1404.36
522.889	1397.19
523.095	1375.69
523.301	1385.57
523.507	1327.64
523.713	1361.16
523.919	1312.91
524.125	1405.72
524.331	1401.07
524.537	1448.73
524.742	1446.21
524.948	1444.08
525.154	1466.94
525.36	1544.44
525.566	1471.01
525.772	1525.07
525.977	1427.8
526.183	1469.27
526.389	1492.13
526.595	1415.99
526.8	1396.42
527.006	1373.94
527.212	1326.47
527.417	1304.19
527.623	1310.78
527.829	1402.81
528.034	1417.92
528.24	1420.25
528.446	1414.44
528.651	1542.31
528.857	1502.59
529.062	1596.56
529.268	1524.1
529.473	1514.99
529.679	1544.83
529.884	1600.82
530.09	1556.65
530.295	1598.3
530.501	1612.64
530.706	1559.75
530.912	1528.55
531.117	1563.62
531.323	1585.9
531.528	1622.33
531.733	1587.84
531.939	1611.48
532.144	1607.99
532.35	1595.59
532.555	1622.91
532.76	1602.37
532.966	1597.53
533.171	1532.82
533.376	1545.8
533.581	1537.85
533.787	1513.44
533.992	1589.78
534.197	1600.43
534.402	1607.6
534.607	1603.53
534.813	1688.98
535.018	1614
535.223	1634.73
535.428	1623.1
535.633	1679.87
535.838	1712.81
536.043	1675.8
536.249	1768.99
536.454	1696.73
536.659	1734.7
536.864	1665.34
537.069	1670.57
537.274	1696.14
537.479	1701.38
537.684	1676.38
537.889	1663.79
538.094	1769.19
538.299	1700.99
538.504	1765.89
538.708	1724.04
538.913	1735.86
539.118	1748.07
539.323	1747.68
539.528	1696.14
539.733	1729.47
539.938	1743.61
540.142	1740.12
540.347	1725.98
540.552	1691.3
540.757	1663.79
540.962	1661.66
541.166	1657.59
541.371	1631.04
541.576	1703.12
541.781	1605.47
541.985	1724.62
542.19	1723.07
542.395	1789.14
542.599	1809.49
542.804	1731.79
543.008	1752.72
543.213	1744.97
543.418	1685.88
543.622	1792.44
543.827	1734.7
544.031	1787.21
544.236	1800.57
544.44	1792.63
544.645	1848.43
544.849	1768.8
545.054	1799.02
545.258	1868.39
545.463	1819.17
545.667	1754.46
545.872	1796.89
546.076	1804.06
546.281	1862.77
546.485	1767.06
546.689	1833.7
546.894	1849.79
547.098	1801.35
547.302	1789.53
547.507	1802.9
547.711	1800.77
547.915	1859.28
548.119	1765.51
548.324	1787.21
548.528	1864.7
548.732	1809.87
548.936	1826.34
549.141	1839.32
549.345	1850.17
549.549	1818.98
549.753	1855.4
549.957	1919.53
550.161	1912.17
550.366	1817.82
550.57	1798.25
550.774	1836.42
550.978	1829.64
551.182	1826.34
551.386	1787.21
551.59	1774.03
551.794	1810.26
551.998	1851.72
552.202	1813.94
552.406	1813.36
552.61	1820.53
552.814	1843.59
553.018	1869.55
553.222	1848.04
553.426	1828.86
553.63	1900.74
553.833	1825.37
554.037	1771.12
554.241	1836.8
554.445	1850.17
554.649	1810.07
554.853	1805.61
555.056	1873.81
555.26	1891.44
555.464	1874.39
555.668	1843.78
555.871	1870.71
556.075	1896.87
556.279	1828.28
556.483	1812.39
556.686	1831.57
556.89	1819.56
557.094	1817.82
557.297	1734.89
557.501	1814.52
557.704	1773.45
557.908	1807.94
558.112	1768.61
558.315	1831.77
558.519	1787.79
558.722	1776.55
558.926	1739.35
559.129	1694.98
559.333	1683.74
559.536	1730.05
559.74	1748.65
559.943	1669.79
560.147	1689.94
560.35	1713.19
560.553	1678.9
560.757	1697.89
560.96	1746.13
561.164	1736.06
561.367	1791.08
561.57	1709.51
561.774	1726.37
561.977	1714.94
562.18	1697.69
562.384	1801.15
562.587	1715.13
562.79	1698.08
562.993	1676.96
563.197	1742.64
563.4	1813.17
563.603	1744.58
563.806	1809.68
564.009	1719.59
564.212	1734.51
564.416	1648.29
564.619	1709.71
564.822	1651.58
565.025	1703.12
565.228	1639.96
565.431	1691.3
565.634	1637.24
565.837	1629.11
566.04	1619.42
566.243	1610.31
566.446	1569.43
566.649	1659.72
566.852	1597.53
567.055	1608.57
567.258	1635.11
567.461	1697.69
567.664	1690.91
567.867	1592.49
568.07	1629.11
568.273	1611.09
568.475	1648.09
568.678	1599.46
568.881	1592.68
569.084	1570.98
569.287	1470.82
569.489	1522.16
569.692	1562.26
569.895	1578.73
570.098	1508.4
570.3	1517.7
570.503	1479.15
570.706	1478.76
570.909	1506.08
571.111	1447.95
571.314	1433.23
571.516	1460.35
571.719	1482.25
571.922	1484.96
572.124	1482.63
572.327	1487.48
572.529	1463.07
572.732	1463.45
572.935	1471.4
573.137	1502.78
573.34	1443.11
573.542	1503.37
573.745	1495.23
573.947	1497.94
574.15	1474.5
574.352	1466.75
574.554	1522.93
574.757	1439.04
574.959	1420.83
575.162	1433.42
575.364	1424.7
575.566	1555.87
575.769	1400.87
575.971	1416.57
576.173	1369.87
576.376	1422.19
576.578	1432.26
576.78	1486.12
576.982	1352.05
577.185	1405.52
577.387	1366.39
577.589	1383.82
577.791	1438.85
577.993	1436.52
578.196	1374.91
578.398	1387.31
578.6	1444.27
578.802	1353.99
579.004	1357.47
579.206	1324.92
579.408	1399.71
579.61	1358.06
579.812	1402.62
580.014	1342.36
580.216	1336.36
580.418	1356.51
580.62	1354.57
580.822	1347.59
581.024	1385.76
581.226	1412.3
581.428	1365.42
581.63	1459.97
581.832	1364.25
582.034	1435.55
582.236	1397.97
582.438	1427.42
582.64	1488.25
582.841	1474.69
583.043	1487.48
583.245	1437.49
583.447	1456.09
583.649	1424.32
583.85	1428.97
584.052	1455.51
584.254	1375.3
584.456	1456.09
584.657	1353.41
584.859	1389.05
585.061	1387.31
585.262	1390.99
585.464	1357.86
585.666	1403.39
585.867	1363.48
586.069	1410.17
586.27	1406.49
586.472	1409.2
586.674	1369.68
586.875	1376.27
587.077	1354.18
587.278	1370.07
587.48	1354.18
587.681	1440.59
587.883	1367.74
588.084	1298.38
588.285	1309.23
588.487	1290.82
588.688	1321.05
588.89	1258.86
589.091	1226.11
589.292	1241.61
589.494	1188.91
589.695	1192.59
589.896	1135.44
590.098	1133.11
590.299	1192.21
590.5	1144.55
590.702	1194.92
590.903	1229.41
591.104	1339.26
591.305	1254.59
591.507	1300.71
591.708	1238.71
591.909	1277.07
592.11	1317.37
592.311	1285.98
592.512	1250.72
592.714	1221.66
592.915	1215.26
593.116	1235.03
593.317	1272.81
593.518	1253.04
593.719	1242.19
593.92	1281.91
594.121	1298.96
594.322	1256.14
594.523	1256.53
594.724	1193.76
594.925	1237.74
595.126	1238.9
595.327	1252.27
595.528	1278.42
595.729	1255.37
595.929	1234.83
596.13	1247.81
596.331	1270.09
596.532	1281.33
596.733	1294.89
596.934	1320.08
597.135	1296.06
597.335	1270.29
597.536	1253.63
597.737	1294.51
597.938	1234.25
598.138	1303.61
598.339	1266.03
598.54	1230.38
598.74	1282.88
598.941	1227.28
599.142	1316.01
599.342	1275.71
599.543	1232.31
599.744	1263.12
599.944	1280.17
600.145	1271.45
600.345	1269.71
600.546	1338.29
600.746	1308.84
600.947	1367.35
601.147	1252.46
601.348	1320.08
601.548	1240.64
601.749	1286.95
601.949	1194.73
602.15	1241.42
602.35	1227.08
602.551	1311.94
602.751	1235.03
602.951	1268.93
603.152	1195.5
603.352	1269.32
603.552	1229.79
603.753	1295.09
603.953	1291.79
604.153	1288.89
604.354	1277.26
604.554	1244.52
604.754	1262.34
604.954	1211.19
605.155	1279.2
605.355	1260.02
605.555	1309.04
605.755	1317.76
605.955	1282.88
606.155	1296.06
606.356	1224.56
606.556	1248.39
606.756	1261.38
606.956	1208.29
607.156	1313.69
607.356	1227.08
607.556	1273
607.756	1256.34
607.956	1291.79
608.156	1279.01
608.356	1199.57
608.556	1277.26
608.756	1248.01
608.956	1235.99
609.156	1245.1
609.356	1226.11
609.556	1202.48
609.755	1251.49
609.955	1187.36
610.155	1257.5
610.355	1257.31
610.555	1205.58
610.755	1221.85
610.954	1165.86
611.154	1274.16
611.354	1277.46
611.554	1181.55
611.753	1229.21
611.953	1154.62
612.153	1206.16
612.352	1209.26
612.552	1179.23
612.752	1128.46
612.951	1186.2
613.151	1201.12
613.351	1168.96
613.55	1192.98
613.75	1198.99
613.949	1165.66
614.149	1209.84
614.348	1154.62
614.548	1168.57
614.747	1124.4
614.947	1165.86
615.146	1129.82
615.346	1202.67
615.545	1197.24
615.745	1201.31
615.944	1200.93
616.144	1153.46
616.343	1193.37
616.542	1157.53
616.742	1127.69
616.941	1124.2
617.14	1107.93
617.34	1115.68
617.539	1119.94
617.738	1116.84
617.938	1159.85
618.137	1150.55
618.336	1110.64
618.535	1155.2
618.734	1140.86
618.934	1191.24
619.133	1175.74
619.332	1175.16
619.531	1155.01
619.73	1145.32
619.929	1168.96
620.128	1163.34
620.328	1210.23
620.527	1143.77
620.726	1147.45
620.925	1167.41
621.124	1140.48
621.323	1147.06
621.522	1105.02
621.721	1099.21
621.92	1104.25
622.119	1161.6
622.318	1116.26
622.517	1136.8
622.715	1094.56
622.914	1059.68
623.113	1102.7
623.312	1074.02
623.511	1105.02
623.71	1104.44
623.909	1087.39
624.107	1118.78
624.306	1060.07
624.505	1077.32
624.704	1059.49
624.902	1055.03
625.101	1124.01
625.3	1088.94
625.499	1056
625.697	1078.67
625.896	1062.78
626.095	1074.6
626.293	1048.64
626.492	1029.07
626.69	1078.67
626.889	1073.25
627.088	1117.42
627.286	1056.97
627.485	1069.37
627.683	1050.77
627.882	1050
628.08	985.87
628.279	1014.15
628.477	1078.87
628.676	962.62
628.874	1019.77
629.073	982.96
629.271	984.9
629.469	1041.28
629.668	1003.5
629.866	961.84
630.065	1001.56
630.263	1049.8
630.461	975.21
630.66	1019.97
630.858	1007.37
631.056	1052.13
631.254	1034.69
631.453	967.46
631.651	1065.5
631.849	1011.25
632.047	1033.33
632.245	994.2
632.444	1012.6
632.642	1007.95
632.84	1081.19
633.038	1000.01
633.236	977.73
633.434	1017.25
633.632	975.4
633.83	989.74
634.028	1087.97
634.227	1025.78
634.425	1090.88
634.623	1025.39
634.821	1020.35
635.019	1047.48
635.216	1024.23
635.414	1045.15
635.612	1031.01
635.81	1017.83
636.008	1107.54
636.206	1015.32
636.404	1070.92
636.602	1009.31
636.8	1042.44
636.997	1078.87
637.195	1050.58
637.393	1023.07
637.591	1104.25
637.789	1035.66
637.986	1028.88
638.184	1031.4
638.382	1081.97
638.58	1068.21
638.777	1089.13
638.975	1035.47
639.173	1030.23
639.37	1053.48
639.568	1057.75
639.765	1059.68
639.963	1029.27
640.161	1080.8
640.358	1050.77
640.556	1000.2
640.753	991.49
640.951	998.65
641.148	1027.91
641.346	1007.95
641.543	1016.09
641.741	1034.11
641.938	992.84
642.136	1001.37
642.333	1026.36
642.531	1024.81
642.728	1055.23
642.925	1035.85
643.123	1011.64
643.32	1001.56
643.517	1013.57
643.715	1039.15
643.912	993.23
644.109	1016.28
644.306	1008.73
644.504	997.49
644.701	1016.67
644.898	1012.8
645.095	959.9
645.293	1009.5
645.49	980.44
645.687	1030.43
645.884	1002.34
646.081	941.11
646.278	972.11
646.475	937.62
646.672	932.2
646.87	1005.24
647.067	970.17
647.264	964.17
647.461	909.34
647.658	906.82
647.855	966.88
648.052	937.24
648.249	868.07
648.446	910.89
648.642	932.78
648.839	923.67
649.036	882.6
649.233	869.23
649.43	874.46
649.627	871.94
649.824	912.24
650.021	881.44
650.217	890.93
650.414	902.94
650.611	919.61
650.808	926
651.004	944.99
651.201	953.32
651.398	969.01
651.595	930.84
651.791	920.77
651.988	960.68
652.185	892.67
652.381	910.11
652.578	860.12
652.775	937.43
652.971	907.59
653.168	895.97
653.364	956.61
653.561	862.06
653.757	924.84
653.954	895.19
654.15	888.8
654.347	971.34
654.543	927.16
654.74	884.54
654.936	870.01
655.133	876.59
655.329	910.69
655.525	879.11
655.722	898.87
655.918	832.81
656.115	858.19
656.311	794.06
656.507	779.33
656.704	738.65
656.9	783.21
657.096	767.32
657.292	815.76
657.489	850.63
657.685	857.99
657.881	806.07
658.077	805.29
658.273	850.24
658.47	908.56
658.666	854.31
658.862	898.29
659.058	859.35
659.254	925.03
659.45	864.97
659.646	907.98
659.842	890.16
660.038	926.19
660.234	859.35
660.43	901.59
660.626	938.98
660.822	900.81
661.018	879.69
661.214	909.34
661.41	836.88
661.606	878.72
661.802	884.54
661.998	870.2
662.194	831.45
662.39	892.29
662.586	907.79
662.781	909.14
662.977	899.07
663.173	922.12
663.369	876.4
663.564	897.91
663.76	913.21
663.956	858.38
664.152	943.82
664.347	838.42
664.543	886.28
664.739	856.83
664.934	821.76
665.13	847.72
665.326	914.57
665.521	914.18
665.717	829.13
665.912	870.39
666.108	786.11
666.304	833.78
666.499	843.85
666.695	802
666.89	826.8
667.086	895.97
667.281	903.33
667.477	923.29
667.672	878.53
667.867	846.17
668.063	884.54
668.258	805.29
668.454	864.19
668.649	908.56
668.844	873.69
669.04	883.57
669.235	866.71
669.43	856.06
669.626	796.58
669.821	812.66
670.016	780.3
670.211	857.8
670.407	811.88
670.602	848.5
670.797	820.02
670.992	860.51
671.187	819.05
671.382	848.69
671.578	819.24
671.773	817.5
671.968	807.43
672.163	821.57
672.358	835.71
672.553	800.84
672.748	808.01
672.943	886.47
673.138	801.03
673.333	855.09
673.528	779.14
673.723	813.04
673.918	818.86
674.113	772.36
674.308	876.98
674.503	843.07
674.698	807.04
674.892	810.14
675.087	850.24
675.282	809.94
675.477	820.21
675.672	823.31
675.867	782.43
676.061	783.79
676.256	756.47
676.451	799.29
676.646	821.38
676.84	768.29
677.035	755.11
677.23	777.59
677.424	830.48
677.619	848.31
677.814	833.78
678.008	836.1
678.203	772.36
678.397	773.91
678.592	794.64
678.787	851.41
678.981	790.57
679.176	819.24
679.37	799.09
679.565	755.31
679.759	791.93
679.954	822.34
680.148	828.35
680.342	856.25
680.537	774.29
680.731	773.13
680.926	825.25
681.12	803.74
681.314	761.7
681.509	781.08
681.703	798.71
681.897	811.88
682.092	767.13
682.286	748.33
682.48	846.95
682.674	821.57
682.869	761.31
683.063	782.24
683.257	836.49
683.451	755.69
683.645	790.38
683.839	783.01
684.034	782.43
684.228	787.28
684.422	731.67
684.616	722.18
684.81	777.59
685.004	776.23
685.198	764.8
685.392	803.94
685.586	744.85
685.78	787.28
685.974	758.6
686.168	811.49
686.362	802
686.556	709.39
686.75	664.63
686.944	662.7
687.138	659.6
687.331	562.53
687.525	595.66
687.719	516.61
687.913	595.47
688.107	589.65
688.301	577.25
688.494	615.62
688.688	549.94
688.882	548.77
689.076	537.34
689.269	573.77
689.463	656.69
689.657	606.32
689.85	579.97
690.044	615.62
690.238	620.65
690.431	624.14
690.625	595.85
690.818	648.94
691.012	625.3
691.205	694.86
691.399	630.92
691.593	670.06
691.786	709
691.98	721.01
692.173	748.53
692.366	702.22
692.56	745.23
692.753	759.38
692.947	674.71
693.14	758.41
693.333	728.38
693.527	689.82
693.72	738.65
693.914	699.31
694.107	697.76
694.3	726.05
694.493	719.85
694.687	767.13
694.88	722.95
695.073	787.28
695.266	777.59
695.46	755.31
695.653	812.27
695.846	803.36
696.039	739.42
696.232	772.36
696.425	787.86
696.618	814.59
696.812	826.22
697.005	895.77
697.198	924.06
697.391	862.45
697.584	890.35
697.777	918.64
697.97	898.1
698.163	919.8
698.356	900.23
698.549	959.9
698.742	948.86
698.935	898.87
699.127	961.65
699.32	879.5
699.513	905.46
699.706	938.2
699.899	956.42
700.092	907.59
700.285	948.86
700.477	872.91
700.67	976.76
700.863	988.77
701.056	1047.67
701.248	1012.99
701.441	1016.48
701.634	969.59
701.826	1093.78
702.019	947.31
702.212	1089.52
702.404	1003.89
702.597	1029.27
702.79	1032.37
702.982	1053.87
703.175	1083.13
703.367	1098.63
703.56	1135.63
703.752	1195.31
703.945	1160.63
704.137	1197.83
704.33	1171.48
704.522	1208.68
704.715	1165.28
704.907	1222.63
705.1	1242.97
705.292	1260.02
705.484	1233.48
705.677	1277.65
705.869	1274.94
706.061	1307.1
706.254	1343.52
706.446	1294.7
706.638	1291.02
706.831	1370.26
707.023	1351.27
707.215	1424.32
707.407	1385.18
707.599	1382.08
707.792	1460.74
707.984	1417.54
708.176	1440.59
708.368	1431.1
708.56	1440.01
708.752	1432.07
708.944	1451.83
709.136	1503.37
709.329	1474.88
709.521	1585.32
709.713	1501.43
709.905	1576.02
710.097	1574.08
710.289	1514.6
710.481	1585.13
710.672	1581.64
710.864	1617.1
711.056	1658.75
711.248	1649.06
711.44	1619.61
711.632	1657.39
711.824	1671.34
712.016	1721.52
712.207	1700.79
712.399	1683.55
712.591	1760.47
712.783	1765.31
712.975	1779.26
713.166	1736.83
713.358	1779.46
713.55	1849.2
713.741	1804.25
713.933	1862.57
714.125	1829.64
714.316	1824.6
714.508	1930.38
714.7	1884.08
714.891	1860.05
715.083	1926.7
715.274	1907.52
715.466	1906.36
715.657	1961.97
715.849	1836.42
716.04	1908.88
716.232	1869.94
716.423	1899.38
716.615	1851.92
716.806	1829.83
716.998	1765.89
717.189	1707.19
717.381	1639.38
717.572	1614
717.763	1674.83
717.955	1606.05
718.146	1594.23
718.337	1560.13
718.528	1563.23
718.72	1485.93
718.911	1540.76
719.102	1503.56
719.293	1533.01
719.485	1485.73
719.676	1500.07
719.867	1499.49
720.058	1494.65
720.249	1517.12
720.44	1510.15
720.632	1562.46
720.823	1614.19
721.014	1738.77
721.205	1744.97
721.396	1840.29
721.587	1932.13
721.778	1906.36
721.969	1969.33
722.16	2069.11
722.351	2074.92
722.542	2183.03
722.733	2166.56
722.924	2094.49
723.115	2162.49
723.305	2151.26
723.496	2136.34
723.687	1999.75
723.878	2049.73
724.069	2040.24
724.26	2049.73
724.45	2040.05
724.641	2006.14
724.832	2047.02
725.023	2003.43
725.213	2032.3
725.404	2018.73
725.595	2024.74
725.785	2019.12
725.976	2057.68
726.167	2040.82
726.357	2063.88
726.548	2175.28
726.739	2113.86
726.929	2185.55
727.12	2194.85
727.31	2215.58
727.501	2168.11
727.691	2179.16
727.882	2192.33
728.072	2269.05
728.263	2212.48
728.453	2276.8
728.644	2314
728.834	2299.28
729.024	2228.76
729.215	2239.41
729.405	2292.5
729.596	2365.54
729.786	2372.52
729.976	2405.07
730.167	2379.3
730.357	2400.61
730.547	2382.01
730.737	2423.47
730.928	2452.15
731.118	2469
731.308	2409.13
731.498	2443.23
731.688	2571.69
731.879	2548.24
732.069	2598.42
732.259	2671.47
732.449	2709.64
732.639	2793.33
732.829	2790.23
733.019	2841
733.209	2882.85
733.399	2886.14
733.589	3030.67
733.779	2990.18
733.969	3034.55
734.159	3145.76
734.349	3130.65
734.539	3184.51
734.729	3205.05
734.919	3178.12
735.109	3262.59
735.299	3211.63
735.488	3240.89
735.678	3243.6
735.868	3251.74
736.058	3190.52
736.248	3237.98
736.437	3194.2
736.627	3160.1
736.817	3308.7
737.007	3259.68
737.196	3326.53
737.386	3308.7
737.576	3294.17
737.765	3353.46
737.955	3345.13
738.144	3485.79
738.334	3411.78
738.524	3393.76
738.713	3408.68
738.903	3416.81
739.092	3418.17
739.282	3428.24
739.471	3471.45
739.661	3435.41
739.85	3495.09
740.04	3488.69
740.229	3495.86
740.419	3583.24
740.608	3551.47
740.797	3558.44
740.987	3601.84
741.176	3616.37
741.365	3541.01
741.555	3527.25
741.744	3664.03
741.933	3575.88
742.123	3671.78
742.312	3656.48
742.501	3690.58
742.69	3727.78
742.88	3629.55
743.069	3766.72
743.258	3731.07
743.447	3771.56
743.636	3757.03
743.825	3697.94
744.014	3691.35
744.204	3766.91
744.393	3687.67
744.582	3812.25
744.771	3784.16
744.96	3758.78
745.149	3777.18
745.338	3773.5
745.527	3820.19
745.716	3773.11
745.905	3757.03
746.094	3850.42
746.283	3830.66
746.471	3813.03
746.66	3843.44
746.849	3871.93
747.038	3881.61
747.227	3835.5
747.416	3834.34
747.604	3775.83
747.793	3858.56
747.982	3852.16
748.171	3848.87
748.359	3882.39
748.548	3882
748.737	3833.37
748.926	3812.64
749.114	3729.71
749.303	3832.79
749.491	3848.29
749.68	3778.93
749.869	3844.03
750.057	3842.09
750.246	3797.33
750.434	3854.49
750.623	3808.76
750.811	3777.18
751	3869.99
751.188	3789.58
751.377	3789
751.565	3786.87
751.754	3761.68
751.942	3773.5
752.131	3822.91
752.319	3790.16
752.507	3718.87
752.696	3800.43
752.884	3814.38
753.072	3805.86
753.261	3779.51
753.449	3776.6
753.637	3738.43
753.825	3830.27
754.014	3730.3
754.202	3750.83
754.39	3826.2
754.578	3783.38
754.766	3733.01
754.955	3723.32
755.143	3800.82
755.331	3717.7
755.519	3718.87
755.707	3722.35
755.895	3712.47
756.083	3734.56
756.271	3667.91
756.459	3742.11
756.647	3759.36
756.835	3659.77
757.023	3686.7
757.211	3679.73
757.399	3646.6
757.587	3675.08
757.775	3626.84
757.963	3649.7
758.151	3661.52
758.339	3605.14
758.526	3607.27
758.714	3589.64
758.902	3471.06
759.09	3387.17
759.278	3150.6
759.465	2898.93
759.653	2518.79
759.841	2308.77
760.028	1952.67
760.216	1727.92
760.404	1567.5
760.591	1316.01
760.779	1080.22
760.967	988.77
761.154	800.45
761.342	838.62
761.529	837.26
761.717	870.97
761.905	896.74
762.092	959.71
762.28	877.95
762.467	860.51
762.655	793.67
762.842	811.88
763.029	843.46
763.217	842.3
763.404	861.29
763.592	890.54
763.779	838.81
763.966	881.63
764.154	938.4
764.341	1000.4
764.528	970.17
764.716	1050.38
764.903	1113.74
765.09	1201.31
765.277	1237.35
765.465	1429.16
765.652	1466.94
765.839	1580.09
766.026	1692.46
766.213	1714.94
766.4	1831.19
766.588	2055.74
766.775	2079.76
766.962	2216.94
767.149	2299.28
767.336	2467.65
767.523	2428.12
767.71	2598.23
767.897	2655.39
768.084	2747.42
768.271	2767.95
768.458	2844.87
768.645	2946.98
768.832	2901.06
769.019	2953.18
769.206	2991.93
769.392	3079.5
769.579	3144.4
769.766	3138.4
769.953	3100.42
770.14	3165.52
770.327	3168.43
770.513	3195.94
770.7	3285.26
770.887	3180.25
771.073	3232.95
771.26	3244.96
771.447	3228.1
771.634	3190.52
771.82	3312.77
772.007	3185.29
772.193	3245.15
772.38	3285.84
772.567	3212.99
772.753	3245.54
772.94	3303.86
773.126	3270.53
773.313	3272.28
773.499	3261.23
773.686	3300.37
773.872	3213.38
774.059	3245.15
774.245	3219
774.432	3213.18
774.618	3165.91
774.804	3250.97
774.991	3192.26
775.177	3222.1
775.363	3201.75
775.55	3249.61
775.736	3177.15
775.922	3206.79
776.109	3156.61
776.295	3210.67
776.481	3234.11
776.667	3274.02
776.853	3174.63
777.04	3149.25
777.226	3135.3
777.412	3227.72
777.598	3147.12
777.784	3162.23
777.97	3126.58
778.156	3158.94
778.342	3152.15
778.528	3148.47
778.715	3058.57
778.901	3086.86
779.087	3117.67
779.272	3049.86
779.458	3044.04
779.644	3090.54
779.83	3034.36
780.016	3157.58
780.202	3063.03
780.388	3068.26
780.574	2990.38
780.76	3047.92
780.946	3064.58
781.131	3017.69
781.317	3016.53
781.503	3047.14
781.689	2979.91
781.874	3117.47
782.06	2969.26
782.246	2991.15
782.432	2955.69
782.617	2964.03
782.803	3073.11
782.989	2940.78
783.174	2917.14
783.36	2920.24
783.545	2945.81
783.731	2920.82
783.916	2839.83
784.102	2946.01
784.288	2889.05
784.473	2934.96
784.659	2886.14
784.844	2902.61
785.029	2853.98
785.215	2862.11
785.4	2813.48
785.586	2921.21
785.771	2839.25
785.956	2870.25
786.142	2841.38
786.327	2828.98
786.512	2788.1
786.698	2798.57
786.883	2782.29
787.068	2790.82
787.254	2817.36
787.439	2766.02
787.624	2796.05
787.809	2725.72
787.994	2751.29
788.18	2811.74
788.365	2733.27
788.55	2717.97
788.735	2708.28
788.92	2719.32
789.105	2710.41
789.29	2716.22
789.475	2626.71
789.66	2644.34
789.845	2631.36
790.03	2604.82
790.215	2641.82
790.4	2667.98
790.585	2682.51
790.77	2645.89
790.955	2574.59
791.14	2586.02
791.325	2679.22
791.51	2517.05
791.695	2580.79
791.879	2586.61
792.064	2557.74
792.249	2658.68
792.434	2605.59
792.618	2598.81
792.803	2620.51
792.988	2582.15
793.173	2600.17
793.357	2629.23
793.542	2554.64
793.727	2638.92
793.911	2638.34
794.096	2607.92
794.281	2642.02
794.465	2680.77
794.65	2603.66
794.834	2660.23
795.019	2698.01
795.203	2689.1
795.388	2671.66
795.572	2679.22
795.757	2694.72
795.941	2654.61
796.126	2678.25
796.31	2578.28
796.494	2656.94
796.679	2615.09
796.863	2583.51
797.048	2692
797.232	2633.49
797.416	2634.66
797.601	2626.71
797.785	2697.24
797.969	2735.02
798.153	2618.38
798.338	2702.27
798.522	2687.35
798.706	2672.82
798.89	2721.65
799.074	2793.92
799.258	2725.72
799.443	2730.75
799.627	2693.55
799.811	2717.19
799.995	2652.29
800.179	2619.16
800.363	2636.98
800.547	2668.17
800.731	2680.96
800.915	2611.41
801.099	2632.33
801.283	2616.06
801.467	2637.56
801.651	2642.79
801.835	2687.74
802.019	2646.86
802.202	2702.08
802.386	2608.11
802.57	2599.2
802.754	2597.46
802.938	2599.97
803.121	2647.25
803.305	2651.32
803.489	2644.73
803.673	2653.45
803.856	2667.4
804.04	2640.86
804.224	2630.2
804.407	2614.31
804.591	2639.89
804.775	2627.29
804.958	2636.4
805.142	2745.87
805.326	2646.28
805.509	2671.08
805.693	2691.42
805.876	2684.45
806.06	2678.64
806.243	2690.26
806.427	2721.84
806.61	2715.84
806.794	2657.71
806.977	2714.29
807.16	2650.74
807.344	2692.59
807.527	2693.55
807.71	2668.17
807.894	2633.49
808.077	2661.2
808.26	2625.94
808.444	2639.89
808.627	2699.37
808.81	2602.88
808.993	2579.05
809.177	2578.08
809.36	2557.74
809.543	2586.99
809.726	2482.76
809.909	2522.28
810.092	2492.06
810.276	2483.73
810.459	2487.8
810.642	2442.65
810.825	2453.11
811.008	2464.16
811.191	2343.45
811.374	2377.17
811.557	2391.7
811.74	2425.21
811.923	2337.06
812.106	2325.43
812.289	2283
812.472	2292.11
812.654	2268.86
812.837	2252.2
813.02	2193.49
813.203	2167.92
813.386	2096.43
813.569	2044.89
813.751	2002.85
813.934	2027.06
814.117	2015.25
814.3	1949.57
814.482	1961.77
814.665	1853.47
814.848	1859.09
815.03	1800.19
815.213	1773.45
815.396	1795.54
815.578	1737.41
815.761	1730.44
815.943	1786.82
816.126	1663.01
816.309	1646.35
816.491	1602.18
816.674	1534.75
816.856	1592.68
817.039	1613.61
817.221	1678.71
817.403	1611.48
817.586	1630.27
817.768	1638.6
817.951	1564.98
818.133	1566.72
818.315	1589.97
818.498	1612.06
818.68	1702.34
818.862	1610.12
819.045	1657.2
819.227	1648.09
819.409	1612.64
819.591	1674.64
819.774	1611.86
819.956	1608.18
820.138	1687.81
820.32	1664.18
820.502	1758.14
820.684	1842.04
820.866	1799.99
821.048	1845.33
821.231	1876.33
821.413	1889.89
821.595	1862.57
821.777	1883.69
821.959	1833.12
822.141	1918.76
822.323	1784.88
822.505	1699.24
822.686	1627.36
822.868	1571.95
823.05	1487.67
823.232	1406.49
823.414	1373.75
823.596	1455.32
823.778	1459
823.96	1512.86
824.141	1505.69
824.323	1503.75
824.505	1602.56
824.687	1677.35
824.868	1701.57
825.05	1781.97
825.232	1810.07
825.413	1871.1
825.595	1800.38
825.777	1735.86
825.958	1773.26
826.14	1792.05
826.321	1827.7
826.503	1823.63
826.685	1843.2
826.866	1862.38
827.048	1887.76
827.229	1759.11
827.411	1724.82
827.592	1692.27
827.773	1675.99
827.955	1638.99
828.136	1628.14
828.318	1612.06
828.499	1678.71
828.68	1601.4
828.862	1643.83
829.043	1656.81
829.224	1613.61
829.406	1583.38
829.587	1612.45
829.768	1630.66
829.949	1607.02
830.131	1627.56
830.312	1671.54
830.493	1609.15
830.674	1634.73
830.855	1632.59
831.036	1626.39
831.218	1702.15
831.399	1664.18
831.58	1658.94
831.761	1655.07
831.942	1660.88
832.123	1640.34
832.304	1575.44
832.485	1602.76
832.666	1638.21
832.847	1628.91
833.028	1627.56
833.209	1616.71
833.389	1607.21
833.57	1573.31
833.751	1589.78
833.932	1647.13
834.113	1649.06
834.294	1603.53
834.475	1669.02
834.655	1684.91
834.836	1693.82
835.017	1711.64
835.198	1629.3
835.378	1665.14
835.559	1687.43
835.74	1660.88
835.92	1681.81
836.101	1638.21
836.281	1689.17
836.462	1668.83
836.643	1712.03
836.823	1733.92
837.004	1723.46
837.184	1767.83
837.365	1711.45
837.545	1721.14
837.726	1703.12
837.906	1777.32
838.087	1721.33
838.267	1698.47
838.448	1660.49
838.628	1687.62
838.808	1702.54
838.989	1768.8
839.169	1668.24
839.349	1729.27
839.53	1735.67
839.71	1751.17
839.89	1709.9
840.07	1762.21
840.251	1718.04
840.431	1745.36
840.611	1751.94
840.791	1688.01
840.971	1734.7
841.151	1718.04
841.332	1670.76
841.512	1728.89
841.692	1658.36
841.872	1709.13
842.052	1723.27
842.232	1715.32
842.412	1673.28
842.592	1702.93
842.772	1715.91
842.952	1701.96
843.132	1683.94
843.312	1669.6
843.492	1644.99
843.672	1717.26
843.851	1631.63
844.031	1670.57
844.211	1680.64
844.391	1625.62
844.571	1698.08
844.751	1700.79
844.93	1669.02
845.11	1686.07
845.29	1666.31
845.47	1668.44
845.649	1687.81
845.829	1680.84
846.009	1655.84
846.188	1709.9
846.368	1647.71
846.547	1653.91
846.727	1670.18
846.907	1621.55
847.086	1615.74
847.266	1673.67
847.445	1616.51
847.625	1647.9
847.804	1624.26
847.984	1621.94
848.163	1610.51
848.343	1606.25
848.522	1597.91
848.701	1658.75
848.881	1591.71
849.06	1618.06
849.239	1599.85
849.419	1586.48
849.598	1543.08
849.777	1559.75
849.957	1508.98
850.136	1462.68
850.315	1434.2
850.494	1482.83
850.674	1484.96
850.853	1523.71
851.032	1526.81
851.211	1538.63
851.39	1509.57
851.569	1465.78
851.748	1448.54
851.927	1509.95
852.107	1510.92
852.286	1440.4
852.465	1456.48
852.644	1511.7
852.823	1482.63
853.002	1503.37
853.181	1478.95
853.359	1503.17
853.538	1435.36
853.717	1502.01
853.896	1383.63
854.075	1331.51
854.254	1303.03
854.433	1240.45
854.611	1289.66
854.79	1263.12
854.969	1301.67
855.148	1349.72
855.327	1306.32
855.505	1338.1
855.684	1329.57
855.863	1341.01
856.041	1308.26
856.22	1384.79
856.399	1325.89
856.577	1481.67
856.756	1431.29
856.934	1539.79
857.113	1521.38
857.291	1434.39
857.47	1405.14
857.648	1459.38
857.827	1464.81
858.005	1472.37
858.184	1390.8
858.362	1493.48
858.541	1440.98
858.719	1434.39
858.898	1421.22
859.076	1401.07
859.254	1479.53
859.433	1381.3
859.611	1416.18
859.789	1371.04
859.967	1419.67
860.146	1455.9
860.324	1384.4
860.502	1428
860.68	1341.78
860.859	1382.08
861.037	1363.67
861.215	1420.44
861.393	1385.76
861.571	1374.33
861.749	1371.42
861.927	1421.02
862.105	1367.74
862.283	1334.81
862.461	1347.98
862.639	1343.52
862.817	1375.3
862.995	1351.86
863.173	1352.05
863.351	1335.97
863.529	1335.19
863.707	1407.65
863.885	1338.68
864.063	1283.46
864.241	1336.94
864.418	1378.4
864.596	1284.24
864.774	1297.22
864.952	1317.76
865.129	1333.64
865.307	1294.31
865.485	1254.01
865.663	1323.37
865.84	1212.74
866.018	1259.24
866.196	1143.96
866.373	1167.99
866.551	1162.56
866.728	1090.88
866.906	1132.15
867.084	1131.37
867.261	1181.94
867.439	1158.11
867.616	1198.6
867.794	1210.03
867.971	1202.09
868.149	1200.54
868.326	1262.15
868.503	1261.18
868.681	1231.15
868.858	1221.08
869.035	1181.16
869.213	1260.99
869.39	1207.13
869.567	1296.64
869.745	1209.45
869.922	1225.73
870.099	1249.94
870.276	1240.45
870.454	1222.24
870.631	1211.97
870.808	1247.04
870.985	1258.66
871.162	1280.94
871.339	1213.52
871.517	1184.26
871.694	1132.73
871.871	1204.03
872.048	1181.75
872.225	1183.88
872.402	1198.99
872.579	1185.23
872.756	1199.18
872.933	1154.43
873.11	1187.56
873.287	1167.02
873.463	1147.26
873.64	1117.42
873.817	1162.76
873.994	1137.76
874.171	1137.57
874.348	1165.47
874.524	1103.08
874.701	1150.75
874.878	1085.65
875.055	1134.08
875.231	1154.81
875.408	1163.53
875.585	1070.34
875.762	1129.63
875.938	1115.68
876.115	1129.43
876.291	1113.16
876.468	1096.11
876.645	1061.04
876.821	1086.03
876.998	1101.15
877.174	1113.16
877.351	1092.82
877.527	1082.16
877.704	1103.86
877.88	1092.43
878.057	1034.5
878.233	1124.01
878.409	1078.09
878.586	1110.83
878.762	1076.35
878.938	1089.13
879.115	1007.57
879.291	1087.97
879.467	1026.17
879.644	1057.75
879.82	1066.47
879.996	1011.05
880.172	1013.77
880.349	1034.3
880.525	1033.92
880.701	1014.73
880.877	998.85
881.053	1046.32
881.229	1027.33
881.405	1045.73
881.581	997.69
881.757	1029.07
881.933	1079.06
882.109	1075.57
882.285	1016.67
882.461	1004.66
882.637	1017.83
882.813	1012.22
882.989	1023.84
883.165	1067.05
883.341	1037.02
883.517	1065.3
883.693	1028.49
883.869	1017.83
884.044	984.32
884.22	1025.97
884.396	1074.41
884.572	1005.63
884.747	1050.97
884.923	1068.6
885.099	1060.65
885.275	1067.05
885.45	994.39
885.626	1007.95
885.801	1007.76
885.977	1014.73
886.153	960.49
886.328	1042.25
886.504	965.14
886.679	1019.19
886.855	987.8
887.03	1036.82
887.206	1060.85
887.381	998.07
887.557	1042.83
887.732	1000.59
887.908	1041.86
888.083	1040.12
888.258	993.81
888.434	999.62
888.609	1004.08
888.784	1087.2
888.96	1013.96
889.135	976.18
889.31	990.13
889.485	1006.99
889.661	1036.82
889.836	1028.88
890.011	1007.18
890.186	1000.4
890.361	997.69
890.537	1006.02
890.712	1036.63
890.887	1030.23
891.062	993.23
891.237	1065.3
891.412	983.93
891.587	1011.44
891.762	1053.87
891.937	1055.42
892.112	976.57
892.287	1010.09
892.462	933.75
892.637	936.85
892.812	913.21
892.987	967.46
893.161	944.4
893.336	903.14
893.511	953.7
893.686	900.81
893.861	905.66
894.035	919.8
894.21	902.17
894.385	854.31
894.56	901.39
894.734	850.82
894.909	859.74
895.084	863.22
895.258	792.51
895.433	802
895.608	812.27
895.782	740.2
895.957	769.45
896.131	791.93
896.306	708.23
896.48	696.41
896.655	726.44
896.829	644.29
897.004	668.9
897.178	660.18
897.353	627.43
897.527	690.6
897.701	669.28
897.876	632.47
898.05	713.46
898.224	706.1
898.399	710.36
898.573	655.33
898.747	571.83
898.921	604.18
899.096	541.8
899.27	546.25
899.444	565.44
899.618	558.65
899.792	599.73
899.967	567.37
900.141	618.91
900.315	539.09
900.489	589.27
900.663	596.63
900.837	558.27
901.011	556.72
901.185	620.85
901.359	590.82
901.533	606.9
901.707	579.58
901.881	547.42
902.055	545.87
902.229	567.95
902.403	600.5
902.576	601.47
902.75	607.09
902.924	727.6
903.098	655.92
903.272	693.5
903.446	689.43
903.619	721.4
903.793	729.15
903.967	727.41
904.14	760.34
904.314	752.21
904.488	731.28
904.661	740.97
904.835	733.03
905.009	785.92
905.182	803.94
905.356	769.64
905.529	736.32
905.703	695.83
905.876	717.72
906.05	682.26
906.223	683.04
906.397	616.2
906.57	602.05
906.744	602.44
906.917	577.83
907.09	579.97
907.264	577.06
907.437	552.45
907.61	540.83
907.784	521.07
907.957	547.22
908.13	517.77
908.304	584.23
908.477	503.24
908.65	534.44
908.823	502.47
908.996	576.67
909.17	499.17
909.343	495.88
909.516	505.18
909.689	484.64
909.862	501.5
910.035	491.62
910.208	473.02
910.381	467.21
910.554	585
910.727	502.85
910.9	504.02
911.073	512.74
911.246	559.24
911.419	573.38
911.592	527.85
911.765	519.32
911.938	505.76
912.11	509.83
912.283	523.59
912.456	565.63
912.629	516.8
912.802	484.06
912.974	431.17
913.147	410.24
913.32	391.06
913.493	407.72
913.665	452.67
913.838	425.74
914.01	427.68
914.183	445.31
914.356	444.73
914.528	489.68
914.701	494.33
914.873	465.07
915.046	449.96
915.218	417.99
915.391	341.27
915.563	368.01
915.736	427.87
915.908	477.47
916.081	435.04
916.253	410.44
916.425	449.77
916.598	446.28
916.77	409.47
916.942	382.34
917.115	351.73
917.287	428.65
917.459	414.7
917.632	378.66
917.804	350.76
917.976	389.71
918.148	411.79
918.32	440.08
918.493	438.34
918.665	491.42
918.837	434.85
919.009	497.82
919.181	509.64
919.353	458.1
919.525	482.12
919.697	455.39
919.869	452.48
920.041	511.77
920.213	576.67
920.385	520.68
920.557	453.84
920.729	485.81
920.901	464.49
921.073	485.61
921.244	444.15
921.416	516.22
921.588	448.61
921.76	454.61
921.932	514.67
922.103	455.39
922.275	472.44
922.447	498.79
922.619	413.15
922.79	459.26
922.962	434.27
923.134	481.16
923.305	404.62
923.477	383.12
923.648	394.16
923.82	408.11
923.991	383.51
924.163	381.57
924.335	370.91
924.506	353.86
924.677	466.04
924.849	378.86
925.02	398.43
925.192	406.95
925.363	404.24
925.535	391.26
925.706	401.33
925.877	447.25
926.049	372.66
926.22	385.44
926.391	414.12
926.562	438.14
926.734	363.55
926.905	433.3
927.076	348.63
927.247	390.87
927.419	324.41
927.59	320.34
927.761	331.97
927.932	331.78
928.103	323.44
928.274	310.46
928.445	265.32
928.616	295.74
928.787	270.36
928.958	294.19
929.129	283.73
929.3	285.66
929.471	249.24
929.642	205.26
929.813	174.26
929.984	227.35
930.155	164.77
930.326	214.95
930.496	162.83
930.667	123.3
930.838	170.77
931.009	154.3
931.18	151.4
931.35	160.7
931.521	163.41
931.692	112.26
931.863	72.74
932.033	138.8
932.204	129.5
932.374	114
932.545	75.25
932.716	133.77
932.886	118.46
933.057	35.34
933.227	54.14
933.398	141.52
933.568	83
933.739	29.14
933.909	48.13
934.08	85.52
934.25	8.99
934.421	18.49
934.591	64.6
934.761	25.46
934.932	-3.41
935.102	39.02
935.272	41.16
935.443	33.21
935.613	30.5
935.783	21.39
935.953	14.81
936.123	140.35
936.294	31.27
936.464	15.39
936.634	33.79
936.804	1.05
936.974	13.64
937.144	56.27
937.314	43.29
937.484	29.14
937.655	6.09
937.825	105.48
937.995	16.94
938.165	69.83
938.334	59.56
938.504	55.1
938.674	19.07
938.844	61.89
939.014	100.83
939.184	86.1
939.354	149.46
939.524	111.1
939.694	88.04
939.863	93.47
940.033	150.43
940.203	128.73
940.373	125.82
940.542	93.27
940.712	84.17
940.882	116.52
941.051	106.45
941.221	83.2
941.391	149.27
941.56	78.35
941.73	64.79
941.899	170.19
942.069	65.18
942.238	107.03
942.408	77
942.577	115.75
942.747	81.65
942.916	41.35
943.086	87.46
943.255	139.19
943.425	97.54
943.594	70.22
943.763	17.91
943.933	56.46
944.102	8.61
944.271	96.18
944.441	82.42
944.61	46
944.779	49.1
944.948	164.38
945.117	38.83
945.287	68.67
945.456	18.29
945.625	45.61
945.794	45.22
945.963	26.24
946.132	96.57
946.301	49.29
946.47	88.82
946.639	15.77
946.808	26.24
946.977	71.38
947.146	94.82
947.315	65.57
947.484	108.77
947.653	70.41
947.822	72.74
947.991	60.72
948.16	124.27
948.329	112.07
948.498	42.32
948.666	75.25
948.835	91.14
949.004	26.82
949.173	42.9
949.341	85.72
949.51	66.73
949.679	122.92
949.847	96.95
950.016	132.6
950.185	121.37
950.353	59.75
950.522	34.18
950.69	101.8
950.859	41.35
951.028	103.93
951.196	61.3
951.365	64.21
951.533	61.3
951.701	64.6
951.87	89.79
952.038	24.11
952.207	53.55
952.375	114
952.543	70.02
952.712	53.75
952.88	54.33
953.048	129.7
953.217	39.41
953.385	80.68
953.553	112.65
953.721	45.22
953.89	81.65
954.058	44.45
954.226	46
954.394	59.75
954.562	-0.69
954.73	73.9
954.898	58.98
955.067	92.11
955.235	48.32
955.403	99.28
955.571	97.92
955.739	84.36
955.907	55.88
956.075	52.78
956.243	58.59
956.41	70.6
956.578	35.15
956.746	31.27
956.914	65.37
957.082	83.2
957.25	104.51
957.418	52.97
957.585	84.94
957.753	123.89
957.921	27.01
958.089	81.45
958.256	89.2
958.424	87.85
958.592	101.41
958.759	45.42
958.927	92.5
959.095	45.22
959.262	82.04
959.43	59.56
959.597	51.81
959.765	51.23
959.932	32.24
960.1	92.11
960.267	90.75
960.435	66.73
960.602	119.82
960.77	62.27
960.937	59.56
961.104	68.09
961.272	24.11
961.439	70.41
961.606	82.42
961.774	128.15
961.941	83.78
962.108	78.55
962.275	69.83
962.443	139
962.61	92.11
962.777	128.92
962.944	111.68
963.111	103.35
963.278	93.66
963.446	96.18
963.613	96.95
963.78	108.39
963.947	94.44
964.114	86.3
964.281	164.77
964.448	118.65
964.615	60.92
964.782	108.97
964.949	97.73
965.116	107.22
965.282	136.29
965.449	97.34
965.616	39.99
965.783	111.1
965.95	115.17
966.117	48.91
966.283	92.5
966.45	96.57
966.617	87.65
966.784	147.13
966.95	119.62
967.117	133.96
967.284	81.45
967.45	80.49
967.617	140.35
967.784	101.22
967.95	166.7
968.117	114.39
968.283	131.44
968.45	202.16
968.616	140.55
968.783	136.48
968.949	140.35
969.116	152.95
969.282	122.53
969.449	111.1
969.615	113.42
969.781	71.96
969.948	88.62
970.114	95.21
970.28	136.67
970.447	98.7
970.613	148.1
970.779	100.44
970.945	151.2
971.112	89.4
971.278	125.24
971.444	82.42
971.61	146.94
971.776	85.91
971.942	124.66
972.108	124.08
972.275	106.25
972.441	118.85
972.607	151.98
972.773	97.54
972.939	108.77
973.105	116.33
973.271	51.42
973.437	110.52
973.602	66.54
973.768	122.34
973.934	80.49
974.1	122.72
974.266	19.84
974.432	107.8
974.598	69.44
974.763	112.07
974.929	113.04
975.095	148.49
975.261	69.83
975.426	95.79
975.592	97.15
975.758	162.63
975.923	36.89
976.089	61.89
976.255	126.99
976.42	83
976.586	102.96
976.751	104.51
976.917	183.95
977.082	102.38
977.248	72.15
977.413	57.62
977.579	86.88
977.744	123.11
977.91	44.26
978.075	86.88
978.24	114
978.406	92.11
978.571	58.59
978.736	69.25
978.902	101.02
979.067	58.59
979.232	34.18
979.397	111.68
979.563	146.75
979.728	74.29
979.893	82.04
980.058	68.86
980.223	111.1
980.388	104.12
980.554	93.47
980.719	81.45
980.884	95.4
981.049	118.46
981.214	82.04
981.379	105.09
981.544	71.77
981.709	73.12
981.874	73.7
982.039	82.23
982.204	125.82
982.368	96.95
982.533	61.5
982.698	114.97
982.863	142.29
983.028	79.13
983.193	110.9
983.357	105.87
983.522	107.8
983.687	77.39
983.852	65.37
984.016	71.57
984.181	96.18
984.346	95.4
984.51	98.5
984.675	81.07
984.839	135.32
985.004	96.37
985.168	136.09
985.333	121.95
985.498	105.67
985.662	113.04
985.827	114.97
985.991	92.5
986.155	77.19
986.32	117.69
986.484	165.73
986.649	104.7
986.813	72.15
986.977	99.09
987.142	118.46
987.306	63.24
987.47	77.97
987.634	83.39
987.799	98.12
987.963	96.95
988.127	114
988.291	154.88
988.455	93.27
988.62	87.27
988.784	117.69
988.948	114.39
989.112	74.67
989.276	98.12
989.44	107.22
989.604	60.34
989.768	67.5
989.932	152.56
990.096	61.89
990.26	66.54
990.424	69.44
990.588	88.62
990.752	152.75
990.915	104.51
991.079	73.7
991.243	40.77
991.407	94.05
991.571	80.1
991.734	102.19
991.898	95.02
992.062	156.24
992.226	104.51
992.389	87.85
992.553	47.36
992.717	55.88
992.88	80.29
993.044	61.3
993.207	102.96
993.371	129.7
993.535	83.97
993.698	85.91
993.862	112.45
994.025	100.44
994.189	87.85
994.352	84.94
994.515	79.52
994.679	125.63
994.842	58.01
995.006	114.2
995.169	59.75
995.332	85.33
995.496	86.49
995.659	24.49
995.822	83.2
995.985	67.89
996.149	119.62
996.312	78.74
996.475	123.3
996.638	67.7
996.801	137.25
996.964	148.1
997.128	62.85
997.291	64.21
997.454	67.5
997.617	38.44
997.78	109.16
997.943	58.4
998.106	118.46
998.269	33.02
998.432	75.64
998.595	52
998.758	27.01
998.92	60.92
999.083	36.89
999.246	65.76
999.409	47.74
999.572	-3.99
999.735	40.38
999.897	75.64
1000.06	49.87
1000.223	30.5
1000.386	85.14
1000.548	74.67
1000.711	85.33
1000.874	62.47
1001.036	10.74
1001.199	95.99
1001.361	51.04
1001.524	48.13
1001.687	86.88
1001.849	60.92
1002.012	58.59
1002.174	64.4
1002.337	91.53
1002.499	42.12
1002.661	94.44
1002.824	25.07
1002.986	23.52
1003.149	65.57
1003.311	36.12
1003.473	112.65
1003.636	40.19
1003.798	77.58
1003.96	70.22
1004.123	51.81
1004.285	37.28
1004.447	53.17
1004.609	67.31
1004.771	115.55
1004.933	30.31
1005.096	12.48
1005.258	7.44
1005.42	32.24
1005.582	91.72
1005.744	59.17
1005.906	10.74
1006.068	58.59
1006.23	20.62
1006.392	17.52
1006.554	45.22
1006.716	88.43
1006.878	57.82
1007.04	16.16
1007.202	58.2
1007.363	42.9
1007.525	57.04
1007.687	58.4
1007.849	75.06
1008.011	1.05
1008.172	28.56
1008.334	51.04
1008.496	54.14
1008.658	-8.44
1008.819	21.97
1008.981	4.92
1009.143	24.11
1009.304	49.68
1009.466	66.73
1009.627	114
1009.789	115.55
1009.95	45.42
1010.112	27.21
1010.273	46.77
1010.435	54.14
1010.596	44.84
1010.758	42.12
1010.919	49.68
1011.081	23.33
1011.242	34.96
1011.403	53.36
1011.565	52
1011.726	34.37
1011.887	-7.48
1012.049	51.81
1012.21	68.67
1012.371	82.42
1012.532	-8.64
1012.693	21.59
1012.855	1.63
1013.016	26.04
1013.177	73.51
1013.338	44.84
1013.499	104.9
1013.66	54.91
1013.821	48.52
1013.982	39.22
1014.143	41.16
1014.304	26.62
1014.465	58.59
1014.626	60.92
1014.787	26.82
1014.948	118.65
1015.109	-34.99
1015.27	76.03
1015.431	-9.41
1015.592	33.41
1015.752	90.75
1015.913	39.41
1016.074	56.46
1016.235	44.64
1016.395	41.16
1016.556	43.87
1016.717	23.14
1016.877	56.65
1017.038	25.27
1017.199	57.24
1017.359	41.16
1017.52	65.57
1017.681	19.84
1017.841	10.54
1018.002	30.5
1018.162	6.47
1018.323	81.07
1018.483	43.67
1018.644	-2.63
1018.804	4.54
1018.964	3.96
1019.125	10.16
1019.285	39.8
1019.446	0.66
1019.606	8.61
1019.766	-6.31
1019.926	27.21
1020.087	47.36
1020.247	-8.83
1020.407	62.27
1020.567	73.12
1020.728	14.22
1020.888	-4.76
1021.048	-22.59
1021.208	14.81
1021.368	13.45
1021.528	58.59
1021.688	55.88
1021.848	49.49
1022.008	41.35
1022.168	26.04
1022.328	42.32
1022.488	49.68
1022.648	16.55
1022.808	13.84
1022.968	38.06
1023.128	-14.45
1023.288	-10.96
1023.448	31.08
1023.608	43.67
1023.767	39.61
1023.927	39.22
1024.087	0.08
1024.247	27.21
1024.406	7.25
1024.566	-18.71
1024.726	-24.72
1024.885	35.54
1025.045	36.51
1025.205	12.29
1025.364	3.37
1025.524	17.52
1025.683	2.99
1025.843	30.31
1026.003	22.56
1026.162	69.05
1026.321	42.32
1026.481	10.74
1026.64	-5.54
1026.8	41.35
1026.959	32.05
1027.119	6.86
1027.278	11.32
1027.437	-32.28
1027.597	9.38
1027.756	17.32
1027.915	17.91
1028.074	40.38
1028.234	-6.31
1028.393	31.27
1028.552	-3.79
1028.711	-76.26
1028.87	46.39
1029.03	-10.58
1029.189	25.07
1029.348	-15.42
1029.507	-7.86
1029.666	25.66
1029.825	-20.26
1029.984	13.26
1030.143	42.71
1030.302	16.74
1030.461	-33.44
1030.62	31.27
1030.779	43.09
1030.938	-16.39
1031.097	-23.94
1031.255	38.83
1031.414	62.08
1031.573	80.49
1031.732	-45.45
1031.891	-10.77
1032.049	47.16
1032.208	39.22
1032.367	8.02
1032.525	-11.93
1032.684	16.74
1032.843	27.98
1033.001	-48.16
1033.16	165.15
1033.319	53.94
1033.477	32.63
1033.636	-13.68
1033.794	-30.14
1033.953	28.37
1034.111	9.77
1034.27	-7.09
1034.428	30.5
1034.587	17.91
1034.745	1.05
1034.903	31.08
1035.062	33.02
1035.22	-19.29
1035.378	31.66
1035.537	2.99
1035.695	27.59
1035.853	9.38
1036.011	44.64
1036.17	20.81
1036.328	-43.32
1036.486	24.49
1036.644	33.6
1036.802	-60.95
1036.96	-1.08
1037.119	12.48
1037.277	3.37
1037.435	-26.08
1037.593	-9.61
1037.751	-25.11
1037.909	5.12
1038.067	5.12
