Data from oakcork_FLMT105791__269__17-34-15-053.txt Node

Date: Mon Mar 20 17:34:15 GMT 2023
User: antho
Spectrometer: FLMT10579
Trigger mode: 0
Integration Time (sec): 1.000000E-1
Scans to average: 10
Electric dark correction enabled: true
Nonlinearity correction enabled: false
Boxcar width: 0
XAxis mode: Wavelengths
Number of Pixels in Spectrum: 3648
>>>>>Begin Spectral Data<<<<<
345.248	-150.95
345.464	-150.95
345.681	-150.95
345.898	-144.75
346.114	-157.15
346.331	-20.55
346.548	15.68
346.764	5.8
346.981	9.48
347.197	-15.71
347.414	25.36
347.631	-12.8
347.847	44.55
348.064	-2.73
348.28	9.28
348.497	-39.35
348.713	-19
348.93	9.48
349.146	6.38
349.363	5.41
349.579	2.7
349.796	18
350.012	7.54
350.229	34.86
350.445	1.73
350.661	2.89
350.878	24.59
351.094	28.08
351.311	22.07
351.527	-4.08
351.743	8.31
351.96	47.26
352.176	55.59
352.392	50.16
352.609	28.85
352.825	-17.26
353.041	15.48
353.257	-6.02
353.474	-4.28
353.69	6.77
353.906	30.6
354.122	-21.72
354.339	64.89
354.555	16.26
354.771	13.35
354.987	33.7
355.203	46.87
355.42	11.61
355.636	-16.87
355.852	-18.23
356.068	28.85
356.284	-23.65
356.5	82.13
356.716	37.96
356.932	-1.57
357.148	29.05
357.364	11.41
357.58	70.12
357.796	73.41
358.012	48.03
358.228	28.85
358.444	-50.97
358.66	63.34
358.876	23.23
359.092	16.65
359.308	7.73
359.524	22.65
359.74	11.03
359.956	3.08
360.172	23.04
360.388	38.54
360.604	20.13
360.819	98.99
361.035	16.84
361.251	11.61
361.467	-20.36
361.683	63.15
361.898	23.23
362.114	42.41
362.33	26.33
362.546	63.73
362.762	28.85
362.977	26.91
363.193	2.31
363.409	45.13
363.624	-36.63
363.84	-8.73
364.056	11.03
364.271	29.24
364.487	19.94
364.703	30.21
364.918	-31.79
365.134	-0.79
365.35	30.98
365.565	98.02
365.781	33.7
365.996	34.86
366.212	71.28
366.427	39.31
366.643	-12.8
366.858	23.62
367.074	-8.54
367.289	76.9
367.505	117.39
367.72	0.57
367.936	4.44
368.151	58.88
368.367	15.1
368.582	40.09
368.798	24.4
369.013	63.92
369.228	3.47
369.444	21.49
369.659	85.04
369.874	48.61
370.09	71.67
370.305	-32.18
370.52	-0.4
370.736	41.83
370.951	37.18
371.166	61.4
371.381	91.43
371.597	54.23
371.812	-15.32
372.027	-4.86
372.242	18.58
372.458	78.84
372.673	3.47
372.888	-4.28
373.103	38.93
373.318	95.31
373.533	32.92
373.749	32.92
373.964	-17.26
374.179	55.2
374.394	-6.02
374.609	67.6
374.824	6.38
375.039	60.63
375.254	-0.6
375.469	80.2
375.684	44.55
375.899	60.24
376.114	27.88
376.329	31.76
376.544	58.5
376.759	61.01
376.974	21.68
377.189	30.21
377.404	7.54
377.619	65.47
377.834	-19.39
378.049	-16.68
378.264	3.08
378.478	28.08
378.693	13.35
378.908	56.36
379.123	14.9
379.338	70.12
379.553	36.02
379.767	29.82
379.982	53.85
380.197	62.95
380.412	29.24
380.626	57.33
380.841	115.84
381.056	49.2
381.271	79.23
381.485	34.66
381.7	0.76
381.915	40.67
382.129	6.57
382.344	25.56
382.559	27.11
382.773	85.81
382.988	0.76
383.202	40.48
383.417	4.83
383.632	108.68
383.846	18.58
384.061	36.21
384.275	18.78
384.49	43.19
384.704	40.67
384.919	48.61
385.133	37.76
385.348	54.23
385.562	4.05
385.777	72.25
385.991	40.86
386.206	18.78
386.42	6.96
386.634	72.25
386.849	49
387.063	24.4
387.277	-6.6
387.492	1.73
387.706	5.41
387.92	12.19
388.135	53.46
388.349	45.13
388.563	58.69
388.778	27.88
388.992	54.62
389.206	44.74
389.42	93.18
389.635	25.56
389.849	72.06
390.063	85.62
390.277	53.46
390.491	88.72
390.706	60.24
390.92	36.41
391.134	49
391.348	48.03
391.562	5.02
391.776	29.82
391.99	-2.53
392.205	34.86
392.419	2.7
392.633	36.99
392.847	72.25
393.061	12.96
393.275	111.58
393.489	39.51
393.703	42.8
393.917	84.07
394.131	37.76
394.345	56.95
394.559	62.56
394.773	12.19
394.986	52.68
395.2	42.22
395.414	82.33
395.628	20.52
395.842	35.83
396.056	21.88
396.27	-19.78
396.484	66.44
396.697	45.13
396.911	65.86
397.125	65.08
397.339	71.67
397.553	63.34
397.766	95.11
397.98	63.73
398.194	88.53
398.408	34.08
398.621	69.35
398.835	54.81
399.049	70.7
399.262	98.99
399.476	60.05
399.69	62.76
399.903	119.14
400.117	59.66
400.331	84.85
400.544	35.44
400.758	150.72
400.971	40.67
401.185	95.31
401.398	32.92
401.612	125.53
401.826	91.24
402.039	90.08
402.253	64.5
402.466	101.31
402.68	74.19
402.893	98.02
403.106	61.79
403.32	69.93
403.533	57.33
403.747	93.18
403.96	88.14
404.174	92.01
404.387	43.58
404.6	74.77
404.814	104.99
405.027	91.43
405.24	61.98
405.454	41.06
405.667	99.96
405.88	33.89
406.094	68.18
406.307	98.79
406.52	106.74
406.733	56.36
406.947	38.54
407.16	106.16
407.373	94.92
407.586	64.11
407.799	58.88
408.012	125.53
408.226	79.03
408.439	123.21
408.652	36.41
408.865	73.41
409.078	79.81
409.291	101.31
409.504	25.75
409.717	85.81
409.93	87.56
410.143	62.37
410.357	39.12
410.57	59.85
410.783	80.2
410.996	87.56
411.209	80.58
411.421	100.15
411.634	87.75
411.847	43.96
412.06	88.14
412.273	88.72
412.486	75.55
412.699	159.63
412.912	71.09
413.125	68.57
413.338	97.24
413.55	142.39
413.763	92.98
413.976	73.41
414.189	46.87
414.402	67.21
414.615	112.16
414.827	47.45
415.04	110.23
415.253	89.3
415.466	123.21
415.678	175.52
415.891	88.91
416.104	81.55
416.316	85.43
416.529	65.66
416.742	100.34
416.954	102.86
417.167	84.26
417.38	78.84
417.592	127.28
417.805	46.48
418.017	37.57
418.23	118.56
418.442	46.48
418.655	90.85
418.868	102.86
419.08	111
419.293	134.06
419.505	112.16
419.718	111.19
419.93	124.37
420.142	86.2
420.355	137.74
420.567	155.76
420.78	144.71
420.992	81.16
421.205	133.28
421.417	60.63
421.629	72.45
421.842	56.56
422.054	35.44
422.266	110.03
422.479	102.09
422.691	70.31
422.903	92.79
423.115	90.66
423.328	91.24
423.54	117.2
423.752	94.73
423.964	70.31
424.177	100.34
424.389	102.09
424.601	194.12
424.813	115.84
425.025	116.04
425.238	136.77
425.45	85.23
425.662	75.93
425.874	339.43
426.086	120.49
426.298	137.35
426.51	108.09
426.722	86.01
426.934	75.55
427.146	111
427.358	50.36
427.57	142
427.782	117.98
427.994	115.07
428.206	89.11
428.418	44.74
428.63	123.59
428.842	128.83
429.054	109.26
429.266	125.73
429.478	89.11
429.69	94.53
429.902	62.37
430.114	117.39
430.325	92.01
430.537	101.89
430.749	92.6
430.961	62.18
431.173	85.23
431.384	110.42
431.596	40.86
431.808	97.05
432.02	107.71
432.231	134.64
432.443	150.72
432.655	99.18
432.867	87.36
433.078	102.67
433.29	170.87
433.502	120.69
433.713	154.4
433.925	118.75
434.136	166.03
434.348	107.71
434.56	52.1
434.771	198.38
434.983	70.31
435.194	94.15
435.406	116.62
435.617	135.61
435.829	187.14
436.04	122.04
436.252	137.16
436.463	164.09
436.675	155.76
436.886	127.47
437.098	129.21
437.309	177.07
437.521	125.92
437.732	140.26
437.943	116.62
438.155	143.36
438.366	92.79
438.578	158.28
438.789	153.82
439	148.98
439.211	124.76
439.423	157.5
439.634	156.34
439.845	152.46
440.057	160.02
440.268	145.88
440.479	106.93
440.69	147.23
440.902	143.36
441.113	121.08
441.324	105.77
441.535	146.84
441.746	181.72
441.957	107.32
442.168	115.07
442.38	142.39
442.591	133.28
442.802	108.09
443.013	126.5
443.224	152.46
443.435	135.61
443.646	111.19
443.857	112.94
444.068	137.74
444.279	130.18
444.49	186.17
444.701	128.83
444.912	228.22
445.123	152.46
445.334	143.74
445.545	172.23
445.756	163.7
445.967	132.89
446.178	159.63
446.388	171.06
446.599	173.19
446.81	168.16
447.021	134.25
447.232	167.77
447.443	198.77
447.653	132.51
447.864	190.82
448.075	145.68
448.286	181.91
448.496	171.64
448.707	169.51
448.918	148.39
449.129	236.36
449.339	130.96
449.55	191.02
449.761	146.46
449.971	190.05
450.182	143.55
450.393	200.71
450.603	137.16
450.814	209.42
451.024	191.41
451.235	188.69
451.446	226.28
451.656	222.41
451.867	145.68
452.077	184.04
452.288	243.52
452.498	213.3
452.709	156.14
452.919	210.59
453.13	130.76
453.34	184.62
453.55	139.68
453.761	216.59
453.971	176.88
454.182	207.68
454.392	192.96
454.602	254.37
454.813	207.49
455.023	214.27
455.233	147.81
455.444	181.72
455.654	113.52
455.864	170.48
456.075	164.86
456.285	132.89
456.495	158.08
456.705	208.84
456.916	221.44
457.126	232.29
457.336	162.73
457.546	126.69
457.756	153.04
457.967	204.39
458.177	171.64
458.387	176.88
458.597	159.63
458.807	169.9
459.017	154.59
459.227	181.33
459.437	191.21
459.647	191.79
459.857	196.44
460.068	152.85
460.278	217.76
460.488	176.88
460.698	259.8
460.908	183.66
461.117	176.29
461.327	188.5
461.537	197.8
461.747	198.19
461.957	197.61
462.167	298.55
462.377	226.86
462.587	190.82
462.797	218.14
463.007	212.91
463.216	206.71
463.426	224.15
463.636	222.99
463.846	142.58
464.056	158.86
464.265	226.28
464.475	179.78
464.685	201.48
464.895	229.77
465.104	202.06
465.314	243.33
465.524	171.64
465.733	182.3
465.943	258.06
466.153	262.12
466.362	241.97
466.572	208.26
466.782	200.71
466.991	197.99
467.201	248.56
467.41	171.45
467.62	238.29
467.829	194.51
468.039	218.34
468.249	224.73
468.458	231.51
468.668	206.32
468.877	217.56
469.086	233.64
469.296	215.82
469.505	205.36
469.715	284.21
469.924	210.78
470.134	261.93
470.343	274.33
470.552	222.02
470.762	206.32
470.971	186.37
471.18	254.37
471.39	214.46
471.599	219.11
471.808	231.71
472.018	228.41
472.227	223.96
472.436	259.02
472.645	242.56
472.855	221.63
473.064	278.79
473.273	265.81
473.482	231.12
473.691	264.06
473.901	265.61
474.11	202.84
474.319	334.59
474.528	239.84
474.737	278.2
474.946	260.57
475.155	287.5
475.364	277.24
475.573	276.27
475.783	278.4
475.992	266.58
476.201	283.82
476.41	229.96
476.619	243.33
476.828	243.52
477.037	244.69
477.245	260.57
477.454	282.47
477.663	258.44
477.872	239.07
478.081	309.01
478.29	234.03
478.499	329.16
478.708	279.37
478.917	360.35
479.125	274.52
479.334	289.25
479.543	264.26
479.752	306.49
479.961	283.44
480.169	292.35
480.378	250.89
480.587	387.67
480.796	322.57
481.004	288.28
481.213	312.69
481.422	304.94
481.63	316.18
481.839	319.86
482.048	341.17
482.256	284.6
482.465	308.62
482.674	328.39
482.882	330.52
483.091	378.76
483.299	316.76
483.508	341.75
483.716	298.74
483.925	336.52
484.134	308.82
484.342	298.94
484.551	349.5
484.759	319.09
484.967	336.52
485.176	366.17
485.384	346.4
485.593	371.4
485.801	336.14
486.01	322.57
486.218	332.84
486.426	275.3
486.635	305.52
486.843	295.84
487.051	318.5
487.26	311.53
487.468	344.27
487.676	348.34
487.885	317.34
488.093	313.47
488.301	339.62
488.509	339.82
488.717	370.43
488.926	343.11
489.134	310.56
489.342	326.06
489.55	313.85
489.758	356.09
489.967	283.82
490.175	426.62
490.383	321.8
490.591	400.85
490.799	330.71
491.007	402.59
491.215	336.33
491.423	354.35
491.631	363.65
491.839	377.21
492.047	376.24
492.255	328.58
492.463	304.17
492.671	342.72
492.879	405.11
493.087	358.42
493.295	407.63
493.503	376.24
493.711	385.73
493.919	418.67
494.127	400.07
494.334	431.85
494.542	359.58
494.75	355.32
494.958	380.7
495.166	409.95
495.374	393.1
495.581	387.28
495.789	398.52
495.997	424.29
496.205	381.86
496.412	381.08
496.62	380.7
496.828	410.92
497.035	383.8
497.243	415.57
497.451	398.91
497.658	414.22
497.866	403.95
498.074	438.82
498.281	396.97
498.489	460.13
498.696	422.16
498.904	389.42
499.112	411.31
499.319	450.45
499.527	393.68
499.734	443.28
499.942	371.4
500.149	393.68
500.357	407.43
500.564	368.3
500.771	438.24
500.979	383.22
501.186	384.57
501.394	421.58
501.601	394.07
501.808	427.39
502.016	410.73
502.223	398.91
502.43	402.59
502.638	401.82
502.845	373.33
503.052	451.8
503.26	409.95
503.467	474.08
503.674	402.98
503.881	423.13
504.089	499.46
504.296	459.36
504.503	392.52
504.71	430.88
504.917	395.03
505.125	450.64
505.332	417.7
505.539	452
505.746	477.38
505.953	454.13
506.16	447.15
506.367	490.75
506.574	475.05
506.781	504.31
506.988	412.28
507.195	460.33
507.402	421.97
507.609	459.55
507.816	451.03
508.023	423.52
508.23	433.98
508.437	402.98
508.644	479.12
508.851	495.78
509.058	470.4
509.265	478.93
509.472	484.35
509.679	535.5
509.885	471.18
510.092	490.55
510.299	470.79
510.506	449.48
510.713	480.67
510.92	489.2
511.126	488.23
511.333	512.06
511.54	503.53
511.746	505.66
511.953	533.37
512.16	524.65
512.367	466.91
512.573	487.45
512.78	487.06
512.987	473.89
513.193	496.17
513.4	428.36
513.606	492.1
513.813	519.03
514.02	498.5
514.226	561.46
514.433	553.33
514.639	457.61
514.846	477.38
515.052	463.43
515.259	467.88
515.465	502.76
515.672	494.43
515.878	553.71
516.085	514.58
516.291	489.39
516.497	471.18
516.704	481.83
516.91	463.81
517.117	448.51
517.323	425.45
517.529	499.46
517.736	485.71
517.942	494.62
518.148	463.81
518.354	506.44
518.561	520
518.767	504.11
518.973	530.27
519.179	508.18
519.386	509.54
519.592	475.05
519.798	491.91
520.004	559.72
520.21	514.19
520.417	532.59
520.623	558.17
520.829	562.24
521.035	544.8
521.241	564.37
521.447	567.66
521.653	626.76
521.859	560.88
522.065	564.95
522.271	620.75
522.477	603.12
522.683	607.58
522.889	577.54
523.095	603.89
523.301	598.28
523.507	541.51
523.713	569.79
523.919	559.91
524.125	608.54
524.331	533.56
524.537	648.07
524.742	609.9
524.948	641.67
525.154	611.45
525.36	709.1
525.566	633.73
525.772	672.29
525.977	592.85
526.183	618.62
526.389	688.56
526.595	606.41
526.8	606.61
527.006	579.68
527.212	566.89
527.417	574.44
527.623	585.88
527.829	626.95
528.034	604.09
528.24	644.39
528.446	598.66
528.651	669.19
528.857	641.48
529.062	655.43
529.268	630.24
529.473	648.65
529.679	641.87
529.884	724.99
530.09	690.69
530.295	691.66
530.501	697.47
530.706	648.65
530.912	641.67
531.117	673.06
531.323	660.27
531.528	688.95
531.733	671.51
531.939	665.31
532.144	704.45
532.35	673.45
532.555	728.28
532.76	724.21
532.966	726.15
533.171	669.19
533.376	682.17
533.581	641.48
533.787	674.42
533.992	696.51
534.197	758.31
534.402	689.14
534.607	702.71
534.813	786.79
535.018	695.92
535.223	709.68
535.428	694.76
535.633	752.11
535.838	749.4
536.043	716.07
536.249	760.25
536.454	706.77
536.659	730.41
536.864	690.5
537.069	728.67
537.274	721.11
537.479	757.92
537.684	767.42
537.889	687.98
538.094	783.69
538.299	728.67
538.504	749.4
538.708	739.52
538.913	762.57
539.118	722.27
539.323	739.52
539.528	727.5
539.733	724.21
539.938	734.09
540.142	771.87
540.347	737.97
540.552	705.22
540.757	784.66
540.962	750.95
541.166	706
541.371	721.5
541.576	733.32
541.781	630.44
541.985	737
542.19	728.47
542.395	755.79
542.599	822.83
542.804	791.64
543.008	829.03
543.213	740.49
543.418	715.88
543.622	779.24
543.827	725.37
544.031	803.07
544.236	807.13
544.44	754.82
544.645	849.95
544.849	725.57
545.054	819.34
545.258	841.23
545.463	789.12
545.667	771.49
545.872	797.83
546.076	778.65
546.281	807.13
546.485	745.14
546.689	801.13
546.894	799.19
547.098	763.15
547.302	758.7
547.507	783.89
547.711	771.29
547.915	827.48
548.119	708.13
548.324	778.07
548.528	818.37
548.732	770.32
548.936	790.09
549.141	823.41
549.345	754.63
549.549	803.07
549.753	764.32
549.957	862.93
550.161	837.17
550.366	794.35
550.57	778.85
550.774	786.6
550.978	786.99
551.182	809.07
551.386	786.79
551.59	776.72
551.794	758.89
551.998	805
552.202	818.37
552.406	737.19
552.61	777.49
552.814	768.58
553.018	848.79
553.222	782.53
553.426	809.46
553.63	890.83
553.833	778.27
554.037	748.82
554.241	829.03
554.445	776.72
554.649	778.46
554.853	759.67
555.056	828.06
555.26	829.03
555.464	818.76
555.668	805.97
555.871	834.84
556.075	823.6
556.279	768.58
556.483	750.56
556.686	808.49
556.89	797.83
557.094	809.46
557.297	757.73
557.501	822.63
557.704	764.51
557.908	820.5
558.112	729.44
558.315	840.46
558.519	782.53
558.722	772.07
558.926	748.62
559.129	755.4
559.333	707.94
559.536	731.38
559.74	723.24
559.943	720.53
560.147	725.37
560.35	740.49
560.553	737.19
560.757	665.51
560.96	813.53
561.164	729.64
561.367	786.79
561.57	764.51
561.774	737.77
561.977	728.09
562.18	737.77
562.384	806.36
562.587	740.29
562.79	719.17
562.993	726.54
563.197	775.36
563.4	783.11
563.603	783.5
563.806	819.34
564.009	742.23
564.212	751.72
564.416	713.94
564.619	740.68
564.822	690.31
565.025	787.76
565.228	722.08
565.431	781.75
565.634	641.87
565.837	690.11
566.04	687.21
566.243	700.96
566.446	652.33
566.649	721.11
566.852	671.9
567.055	682.17
567.258	714.91
567.461	774.2
567.664	743
567.867	650.59
568.07	730.41
568.273	698.44
568.475	718.98
568.678	675.77
568.881	690.5
569.084	671.9
569.287	615.52
569.489	633.34
569.692	709.49
569.895	692.44
570.098	661.24
570.3	624.82
570.503	578.9
570.706	625.98
570.909	614.74
571.111	592.66
571.314	594.79
571.516	589.75
571.719	638.19
571.922	626.56
572.124	623.85
572.327	635.47
572.529	583.94
572.732	596.73
572.935	605.83
573.137	653.69
573.34	584.52
573.542	639.54
573.745	637.99
573.947	635.67
574.15	606.03
574.352	622.88
574.554	661.82
574.757	567.47
574.959	608.74
575.162	571.15
575.364	621.14
575.566	664.73
575.769	584.13
575.971	603.51
576.173	525.23
576.376	580.45
576.578	625.79
576.78	639.35
576.982	537.83
577.185	579.68
577.387	575.61
577.589	551.78
577.791	587.23
577.993	626.56
578.196	588.01
578.398	573.48
578.6	621.72
578.802	534.34
579.004	537.24
579.206	549.64
579.408	598.86
579.61	541.7
579.812	579.09
580.014	543.44
580.216	577.16
580.418	558.56
580.62	565.34
580.822	507.8
581.024	570.96
581.226	581.03
581.428	557.59
581.63	623.85
581.832	519.81
582.034	606.8
582.236	604.67
582.438	580.64
582.64	600.02
582.841	640.71
583.043	653.11
583.245	585.68
583.447	595.76
583.649	574.64
583.85	586.07
584.052	641.87
584.254	559.53
584.456	618.04
584.657	546.54
584.859	566.5
585.061	565.53
585.262	528.14
585.464	513.8
585.666	589.94
585.867	540.34
586.069	601.57
586.27	583.55
586.472	554.88
586.674	543.06
586.875	540.93
587.077	570.57
587.278	564.56
587.48	548.68
587.681	652.14
587.883	571.54
588.084	511.28
588.285	516.9
588.487	527.36
588.688	556.81
588.89	495.78
589.091	495.98
589.292	516.9
589.494	521.75
589.695	498.5
589.896	432.04
590.098	450.25
590.299	461.3
590.5	462.46
590.702	470.6
590.903	498.88
591.104	548.29
591.305	502.95
591.507	551.97
591.708	558.56
591.909	492.88
592.11	555.46
592.311	545.19
592.512	515.93
592.714	484.35
592.915	456.84
593.116	511.28
593.317	515.55
593.518	504.89
593.719	514.58
593.92	542.48
594.121	515.55
594.322	514.96
594.523	508.18
594.724	479.7
594.925	501.21
595.126	517.1
595.327	509.54
595.528	531.82
595.729	517.1
595.929	520.39
596.13	501.21
596.331	525.81
596.532	502.95
596.733	545.38
596.934	531.82
597.135	565.53
597.335	531.63
597.536	518.45
597.737	503.53
597.938	482.8
598.138	505.86
598.339	510.12
598.54	519.42
598.74	476.6
598.941	518.65
599.142	577.54
599.342	501.98
599.543	459.16
599.744	480.86
599.944	484.35
600.145	486.29
600.345	504.11
600.546	556.43
600.746	538.41
600.947	564.56
601.147	536.28
601.348	557.78
601.548	452.77
601.749	499.27
601.949	462.85
602.15	468.85
602.35	490.16
602.551	525.23
602.751	489.78
602.951	482.22
603.152	451.22
603.352	493.65
603.552	502.18
603.753	517.1
603.953	517.48
604.153	481.45
604.354	480.67
604.554	485.13
604.754	496.75
604.954	459.94
605.155	522.52
605.355	486.68
605.555	540.54
605.755	573.09
605.955	509.73
606.155	516.32
606.356	505.66
606.556	515.93
606.756	532.98
606.956	466.53
607.156	531.24
607.356	444.25
607.556	509.54
607.756	474.28
607.956	546.93
608.156	529.69
608.356	462.46
608.556	544.99
608.756	487.45
608.956	461.3
609.156	509.73
609.356	453.55
609.556	498.11
609.755	537.44
609.955	458.78
610.155	524.85
610.355	487.26
610.555	489.2
610.755	484.35
610.954	393.29
611.154	485.13
611.354	533.18
611.554	452.38
611.753	449.48
611.953	461.1
612.153	478.15
612.352	501.01
612.552	437.47
612.752	407.82
612.951	455.68
613.151	476.21
613.351	449.86
613.55	463.43
613.75	472.92
613.949	454.51
614.149	479.12
614.348	455.87
614.548	413.44
614.747	421.77
614.947	438.05
615.146	395.42
615.346	465.95
615.545	419.06
615.745	431.27
615.944	486.48
616.144	456.45
616.343	439.4
616.542	422.93
616.742	466.53
616.941	425.07
617.14	408.6
617.34	458.39
617.539	458
617.738	423.32
617.938	492.1
618.137	452
618.336	421.97
618.535	480.67
618.734	440.18
618.934	460.71
619.133	466.91
619.332	440.18
619.531	426.03
619.73	437.47
619.929	466.14
620.128	443.47
620.328	503.73
620.527	426.03
620.726	420.42
620.925	437.08
621.124	435.14
621.323	439.4
621.522	415.38
621.721	387.87
621.92	431.27
622.119	467.3
622.318	393.29
622.517	424.1
622.715	407.82
622.914	351.64
623.113	415.18
623.312	370.43
623.511	421.77
623.71	398.72
623.909	391.55
624.107	462.26
624.306	352.6
624.505	406.85
624.704	380.89
624.902	415.18
625.101	432.23
625.3	415.77
625.499	416.35
625.697	376.63
625.896	361.52
626.095	388.25
626.293	369.27
626.492	365.78
626.69	443.28
626.889	408.6
627.088	420.61
627.286	372.56
627.485	370.82
627.683	384.18
627.882	392.52
628.08	347.37
628.279	367.91
628.477	449.28
628.676	359.58
628.874	419.83
629.073	368.49
629.271	372.95
629.469	426.03
629.668	371.98
629.866	383.22
630.065	394.65
630.263	438.24
630.461	350.09
630.66	371.98
630.858	374.69
631.056	411.5
631.254	429.91
631.453	376.05
631.651	407.82
631.849	369.46
632.047	395.23
632.245	360.16
632.444	408.98
632.642	396.78
632.84	391.16
633.038	360.93
633.236	358.03
633.434	346.21
633.632	342.72
633.83	344.85
634.028	409.18
634.227	366.75
634.425	430.1
634.623	391.74
634.821	371.4
635.019	395.42
635.216	363.07
635.414	388.45
635.612	386.12
635.81	361.32
636.008	436.88
636.206	367.72
636.404	395.81
636.602	349.5
636.8	365.39
636.997	400.27
637.195	385.15
637.393	385.93
637.591	418.09
637.789	386.7
637.986	351.44
638.184	389.8
638.382	393.87
638.58	414.99
638.777	433.59
638.975	399.1
639.173	382.05
639.37	377.98
639.568	389.8
639.765	410.73
639.963	353.38
640.161	422.93
640.358	404.92
640.556	351.64
640.753	347.95
640.951	350.86
641.148	405.3
641.346	380.31
641.543	370.04
641.741	401.82
641.938	361.52
642.136	390.58
642.333	333.62
642.531	391.35
642.728	403.95
642.925	371.59
643.123	386.7
643.32	398.52
643.517	354.54
643.715	374.5
643.912	356.87
644.109	372.37
644.306	374.88
644.504	340.79
644.701	368.88
644.898	419.06
645.095	332.65
645.293	359.38
645.49	400.46
645.687	357.45
645.884	397.75
646.081	304.17
646.278	356.29
646.475	351.83
646.672	359.97
646.87	373.14
647.067	335.36
647.264	340.59
647.461	321.6
647.658	309.2
647.855	375.08
648.052	324.12
648.249	271.42
648.446	361.9
648.642	289.05
648.839	334.97
649.036	302.23
649.233	279.75
649.43	304.94
649.627	295.06
649.824	331.29
650.021	303.39
650.217	328.19
650.414	321.8
650.611	342.14
650.808	331.49
651.004	322.77
651.201	348.92
651.398	386.12
651.595	353.38
651.791	339.04
651.988	373.33
652.185	315.4
652.381	338.07
652.578	281.11
652.775	324.7
652.971	280.72
653.168	321.6
653.364	342.53
653.561	287.89
653.757	330.32
653.954	316.76
654.15	308.04
654.347	345.24
654.543	311.34
654.74	278.79
654.936	313.85
655.133	320.25
655.329	296.61
655.525	298.16
655.722	303.78
655.918	277.04
656.115	348.15
656.311	282.85
656.507	253.41
656.704	242.36
656.9	258.06
657.096	244.49
657.292	276.65
657.489	320.64
657.685	283.24
657.881	287.7
658.077	264.45
658.273	283.82
658.47	342.53
658.666	322.96
658.862	322.77
659.058	268.71
659.254	334
659.45	268.91
659.646	297.19
659.842	297.39
660.038	353.57
660.234	291.96
660.43	247.59
660.626	362.29
660.822	326.64
661.018	332.07
661.214	316.18
661.41	264.26
661.606	311.72
661.802	347.37
661.998	318.89
662.194	271.42
662.39	317.34
662.586	296.61
662.781	343.89
662.977	309.98
663.173	317.15
663.369	315.99
663.564	295.06
663.76	325.87
663.956	297
664.152	329.55
664.347	280.72
664.543	303.2
664.739	303.59
664.934	266.39
665.13	243.52
665.326	315.4
665.521	295.64
665.717	260.77
665.912	261.74
666.108	215.24
666.304	278.59
666.499	272.39
666.695	220.27
666.89	262.12
667.086	323.93
667.281	287.5
667.477	332.07
667.672	275.1
667.867	300.1
668.063	291.19
668.258	289.44
668.454	280.92
668.649	358.61
668.844	299.9
669.04	313.47
669.235	296.42
669.43	244.11
669.626	237.71
669.821	274.52
670.016	272.59
670.211	272.59
670.407	236.94
670.602	282.85
670.797	268.71
670.992	324.32
671.187	259.8
671.382	312.3
671.578	268.32
671.773	273.75
671.968	243.72
672.163	257.47
672.358	287.31
672.553	269.68
672.748	264.06
672.943	321.6
673.138	265.81
673.333	293.7
673.528	263.29
673.723	268.52
673.918	256.7
674.113	237.71
674.308	343.89
674.503	306.1
674.698	301.45
674.892	300.1
675.087	297.58
675.282	289.64
675.477	271.42
675.672	299.71
675.867	249.34
676.061	244.49
676.256	225.89
676.451	261.16
676.646	266.58
676.84	244.88
677.035	225.51
677.23	236.16
677.424	274.72
677.619	285.37
677.814	292.74
678.008	293.7
678.203	237.32
678.397	249.53
678.592	303.2
678.787	302.04
678.981	235.77
679.176	277.04
679.37	263.48
679.565	250.11
679.759	239.46
679.954	267.16
680.148	299.13
680.342	286.15
680.537	311.34
680.731	266.77
680.926	268.13
681.12	285.57
681.314	229.38
681.509	250.11
681.703	263.87
681.897	307.85
682.092	254.18
682.286	236.36
682.48	299.13
682.674	295.06
682.869	235.39
683.063	261.54
683.257	325.29
683.451	227.64
683.645	267.16
683.839	275.88
684.034	276.27
684.228	300.87
684.422	224.54
684.616	234.22
684.81	289.44
685.004	244.69
685.198	250.5
685.392	301.26
685.586	228.8
685.78	277.62
685.974	284.79
686.168	284.99
686.362	338.85
686.556	253.79
686.75	233.45
686.944	240.42
687.138	255.54
687.331	197.99
687.525	206.52
687.719	174.74
687.913	240.42
688.107	229.57
688.301	192.37
688.494	246.04
688.688	195.86
688.882	174.94
689.076	193.54
689.269	223.96
689.463	288.28
689.657	226.09
689.85	199.54
690.044	235.97
690.238	238.87
690.431	224.34
690.625	220.86
690.818	244.88
691.012	268.13
691.205	266.97
691.399	201.67
691.593	251.27
691.786	283.44
691.98	290.02
692.173	305.14
692.366	278.4
692.56	287.31
692.753	324.51
692.947	215.82
693.14	324.7
693.333	286.15
693.527	240.42
693.72	276.07
693.914	270.07
694.107	259.22
694.3	276.27
694.493	267.74
694.687	308.43
694.88	252.63
695.073	319.86
695.266	304.17
695.46	279.37
695.653	352.02
695.846	326.84
696.039	269.49
696.232	298.35
696.425	311.92
696.618	312.3
696.812	324.32
697.005	365.78
697.198	416.35
697.391	346.99
697.584	358.8
697.777	407.82
697.97	359.38
698.163	396.97
698.356	365.58
698.549	437.27
698.742	414.22
698.935	351.83
699.127	380.89
699.32	344.66
699.513	390.97
699.706	388.64
699.899	413.83
700.092	353.57
700.285	413.63
700.477	371.4
700.67	399.3
700.863	425.65
701.056	489.39
701.248	439.4
701.441	469.05
701.634	408.6
701.826	511.48
702.019	408.4
702.212	456.06
702.404	407.43
702.597	423.9
702.79	451.8
702.982	474.86
703.175	484.16
703.367	476.8
703.56	472.92
703.752	570.38
703.945	520
704.137	546.54
704.33	538.79
704.522	543.83
704.715	548.87
704.907	541.7
705.1	559.91
705.292	549.64
705.484	535.31
705.677	580.45
705.869	567.08
706.061	597.89
706.254	609.32
706.446	582.58
706.638	615.13
706.831	633.15
707.023	578.13
707.215	679.26
707.407	635.28
707.599	656.59
707.792	667.25
707.984	662.79
708.176	686.43
708.368	661.82
708.56	674.03
708.752	692.63
708.944	683.91
709.136	677.13
709.329	662.41
709.521	770.71
709.713	748.82
709.905	722.66
710.097	769.94
710.289	734.87
710.481	749.59
710.672	755.21
710.864	740.68
711.056	822.44
711.248	799.97
711.44	774.39
711.632	785.63
711.824	801.9
712.016	846.27
712.207	839.68
712.399	818.76
712.591	869.91
712.783	855.18
712.975	848.98
713.166	816.82
713.358	817.6
713.55	898.97
713.741	895.87
713.933	859.83
714.125	864.68
714.316	846.27
714.508	947.8
714.7	929
714.891	907.5
715.083	979.96
715.274	901.3
715.466	922.03
715.657	984.61
715.849	874.95
716.04	938.11
716.232	880.95
716.423	963.1
716.615	900.33
716.806	903.62
716.998	886.57
717.189	867.2
717.381	784.27
717.572	795.9
717.763	843.95
717.955	827.28
718.146	794.73
718.337	780.98
718.528	738.55
718.72	736.61
718.911	803.26
719.102	770.71
719.293	792.02
719.485	779.04
719.676	770.52
719.867	736.22
720.058	739.32
720.249	762.38
720.44	765.87
720.632	793.38
720.823	850.34
721.014	913.89
721.205	899.55
721.396	921.25
721.587	1006.69
721.778	960.58
721.969	998.56
722.16	1049.71
722.351	1022.97
722.542	1118.1
722.733	1126.04
722.924	1058.23
723.115	1094.46
723.305	1108.99
723.496	1123.33
723.687	1030.53
723.878	1063.07
724.069	1065.21
724.26	1064.24
724.45	1007.86
724.641	1005.34
724.832	1039.44
725.023	1037.69
725.213	1015.99
725.404	1015.99
725.595	1054.74
725.785	996.04
725.976	1074.7
726.167	1062.69
726.357	1082.26
726.548	1138.44
726.739	1091.36
726.929	1151.23
727.12	1148.9
727.31	1148.13
727.501	1098.53
727.691	1138.44
727.882	1128.76
728.072	1185.91
728.263	1181.84
728.453	1219.43
728.644	1195.99
728.834	1197.92
729.024	1193.85
729.215	1210.9
729.405	1195.21
729.596	1278.13
729.786	1240.35
729.976	1261.86
730.167	1276.58
730.357	1252.56
730.547	1268.06
730.737	1276.97
730.928	1304.68
731.118	1348.85
731.308	1298.48
731.498	1304.48
731.688	1393.03
731.879	1353.11
732.069	1421.7
732.259	1406.78
732.449	1412.01
732.639	1470.53
732.829	1473.24
733.019	1489.32
733.209	1557.32
733.399	1554.03
733.589	1577.86
733.779	1591.23
733.969	1594.14
734.159	1637.15
734.349	1688.3
734.539	1693.53
734.729	1673.57
734.919	1742.16
735.109	1726.47
735.299	1718.72
735.488	1705.93
735.678	1736.93
735.868	1732.08
736.058	1756.5
736.248	1738.87
736.437	1681.9
736.627	1688.68
736.817	1763.86
737.007	1745.45
737.196	1783.43
737.386	1762.31
737.576	1763.28
737.765	1767.15
737.955	1764.83
738.144	1882.24
738.334	1818.5
738.524	1802.41
738.713	1807.06
738.903	1837.87
739.092	1861.51
739.282	1875.46
739.471	1854.34
739.661	1842.33
739.85	1906.07
740.04	1867.9
740.229	1930.67
740.419	1908.39
740.608	1962.84
740.797	1894.83
740.987	1967.87
741.176	1985.89
741.365	1949.27
741.555	1884.76
741.744	1950.24
741.933	1928.93
742.123	1984.54
742.312	2010.69
742.501	2041.11
742.69	2018.05
742.88	1911.88
743.069	2085.48
743.258	2002.36
743.447	2053.51
743.636	2045.76
743.825	2008.95
744.014	2073.85
744.204	2070.75
744.393	2057.97
744.582	2054.09
744.771	2075.4
744.96	2053.51
745.149	2117.06
745.338	2079.09
745.527	2131.78
745.716	2045.37
745.905	2078.5
746.094	2106.6
746.283	2077.54
746.471	2082.38
746.66	2153.87
746.849	2156.2
747.038	2130.82
747.227	2093.04
747.416	2160.07
747.604	2083.35
747.793	2083.35
747.982	2131.98
748.171	2107.76
748.359	2189.13
748.548	2086.06
748.737	2134.69
748.926	2165.3
749.114	2046.54
749.303	2125.2
749.491	2120.16
749.68	2051.38
749.869	2160.65
750.057	2099.62
750.246	2085.87
750.434	2066.1
750.623	2108.73
750.811	2112.22
751	2144.38
751.188	2083.54
751.377	2091.68
751.565	2095.94
751.754	2049.64
751.942	2059.13
752.131	2154.65
752.319	2053.7
752.507	2019.99
752.696	2101.17
752.884	2128.3
753.072	2105.05
753.261	2100.59
753.449	2066.69
753.637	2072.5
753.825	2138.76
754.014	2097.3
754.202	2111.05
754.39	2142.83
754.578	2096.72
754.766	2049.64
754.955	2025.03
755.143	2101.75
755.331	2059.52
755.519	2050.22
755.707	2065.33
755.895	2054.67
756.083	2071.53
756.271	2023.67
756.459	2057.39
756.647	2090.9
756.835	2050.22
757.023	2010.11
757.211	2036.07
757.399	2028.32
757.587	2052.15
757.775	1983.57
757.963	2016.31
758.151	2025.42
758.339	1972.91
758.526	2022.12
758.714	2007.01
758.902	1960.51
759.09	1881.66
759.278	1754.56
759.465	1623.39
759.653	1383.73
759.841	1294.22
760.028	1071.6
760.216	940.43
760.404	919.31
760.591	716.85
760.779	616.88
760.967	567.86
761.154	415.77
761.342	481.45
761.529	496.56
761.717	513.61
761.905	484.55
762.092	525.81
762.28	464.2
762.467	507.8
762.655	429.33
762.842	467.11
763.029	451.8
763.217	458.58
763.404	486.48
763.592	523.1
763.779	458
763.966	528.91
764.154	546.35
764.341	566.11
764.528	564.76
764.716	585.29
764.903	614.94
765.09	670.35
765.277	694.37
765.465	838.72
765.652	814.5
765.839	916.21
766.026	941.21
766.213	972.4
766.4	1051.84
766.588	1205.87
766.775	1178.35
766.962	1275.81
767.149	1285.5
767.336	1392.06
767.523	1320.95
767.71	1421.7
767.897	1530.01
768.084	1538.14
768.271	1536.79
768.458	1613.51
768.645	1646.64
768.832	1641.6
769.019	1640.25
769.206	1655.94
769.392	1715.23
769.579	1783.04
769.766	1763.86
769.953	1758.24
770.14	1768.31
770.327	1760.18
770.513	1793.31
770.7	1880.11
770.887	1744.68
771.073	1805.71
771.26	1783.81
771.447	1783.81
771.634	1748.17
771.82	1898.9
772.007	1768.12
772.193	1793.5
772.38	1849.49
772.567	1827.21
772.753	1831.28
772.94	1869.06
773.126	1871.58
773.313	1889.02
773.499	1824.31
773.686	1840.39
773.872	1831.48
774.059	1832.83
774.245	1786.33
774.432	1818.69
774.618	1762.89
774.804	1795.44
774.991	1757.27
775.177	1827.02
775.363	1805.9
775.55	1821.98
775.736	1757.85
775.922	1774.71
776.109	1795.05
776.295	1794.86
776.481	1778
776.667	1804.35
776.853	1780.33
777.04	1765.21
777.226	1791.18
777.412	1823.53
777.598	1764.44
777.784	1733.05
777.97	1777.23
778.156	1762.31
778.342	1747.78
778.528	1716.97
778.715	1705.54
778.901	1719.88
779.087	1757.46
779.272	1709.8
779.458	1736.73
779.644	1731.31
779.83	1706.32
780.016	1796.6
780.202	1713.29
780.388	1704.77
780.574	1685
780.76	1650.32
780.946	1709.03
781.131	1694.5
781.317	1673.18
781.503	1665.24
781.689	1660.01
781.874	1787.11
782.06	1674.15
782.246	1647.03
782.432	1682.48
782.617	1710.97
782.803	1690.82
782.989	1613.9
783.174	1666.4
783.36	1623.59
783.545	1660.2
783.731	1637.34
783.916	1600.72
784.102	1645.09
784.288	1597.43
784.473	1624.75
784.659	1620.1
784.844	1645.87
785.029	1601.11
785.215	1621.84
785.4	1572.05
785.586	1668.15
785.771	1579.41
785.956	1628.62
786.142	1604.21
786.327	1552.09
786.512	1603.05
786.698	1582.9
786.883	1541.05
787.068	1539.89
787.254	1552.67
787.439	1516.06
787.624	1566.43
787.809	1529.81
787.994	1522.06
788.18	1584.06
788.365	1508.89
788.55	1512.76
788.735	1540.86
788.92	1536.79
789.105	1501.91
789.29	1537.37
789.475	1486.99
789.66	1501.91
789.845	1454.83
790.03	1467.04
790.215	1524.39
790.4	1480.41
790.585	1495.32
790.77	1487.96
790.955	1428.87
791.14	1466.65
791.325	1544.54
791.51	1397.48
791.695	1456.38
791.879	1428.68
792.064	1425.38
792.249	1498.62
792.434	1452.7
792.618	1462
792.803	1517.99
792.988	1458.9
793.173	1443.01
793.357	1502.3
793.542	1418.02
793.727	1486.03
793.911	1490.29
794.096	1411.43
794.281	1515.86
794.465	1521.67
794.65	1460.06
794.834	1472.08
795.019	1517.8
795.203	1502.3
795.388	1463.16
795.572	1507.72
795.757	1464.52
795.941	1496.1
796.126	1468.2
796.31	1425.58
796.494	1494.94
796.679	1430.03
796.863	1425.19
797.048	1526.32
797.232	1475.18
797.416	1464.91
797.601	1476.14
797.785	1523.22
797.969	1522.45
798.153	1460.06
798.338	1509.66
798.522	1479.05
798.706	1493.97
798.89	1490.68
799.074	1608.86
799.258	1548.8
799.443	1489.51
799.627	1504.24
799.811	1530.39
799.995	1497.65
800.179	1453.86
800.363	1463.74
800.547	1505.79
800.731	1488.54
800.915	1418.21
801.099	1472.85
801.283	1477.31
801.467	1507.92
801.651	1470.33
801.835	1503.85
802.019	1500.17
802.202	1484.67
802.386	1472.85
802.57	1467.04
802.754	1464.13
802.938	1439.53
803.121	1420.54
803.305	1534.66
803.489	1473.24
803.673	1506.17
803.856	1505.98
804.04	1460.06
804.224	1468.98
804.407	1463.94
804.591	1458.13
804.775	1468.01
804.958	1471.49
805.142	1580.96
805.326	1460.06
805.509	1490.48
805.693	1525.36
805.876	1521.48
806.06	1502.69
806.243	1505.79
806.427	1522.45
806.61	1540.86
806.794	1449.21
806.977	1517.8
807.16	1493.39
807.344	1515.86
807.527	1472.85
807.71	1456.96
807.894	1485.25
808.077	1521.29
808.26	1460.06
808.444	1462.97
808.627	1506.17
808.81	1433.13
808.993	1431.19
809.177	1419.76
809.36	1459.48
809.543	1467.81
809.726	1371.13
809.909	1383.15
810.092	1366.1
810.276	1409.88
810.459	1425.77
810.642	1363.77
810.825	1364.74
811.008	1370.16
811.191	1263.8
811.374	1323.66
811.557	1317.08
811.74	1406.59
811.923	1272.9
812.106	1243.84
812.289	1227.95
812.472	1283.56
812.654	1311.27
812.837	1258.76
813.02	1229.89
813.203	1213.23
813.386	1142.71
813.569	1132.44
813.751	1121.59
813.934	1140.38
814.117	1134.37
814.3	1098.53
814.482	1079.54
814.665	1039.24
814.848	992.16
815.03	1004.95
815.213	995.07
815.396	998.17
815.578	972.59
815.761	987.51
815.943	1025.29
816.126	944.31
816.309	942.76
816.491	889.48
816.674	875.72
816.856	901.1
817.039	908.85
817.221	960.58
817.403	898.39
817.586	916.99
817.768	940.24
817.951	831.16
818.133	859.06
818.315	876.3
818.498	884.63
818.68	951.86
818.862	906.53
819.045	963.49
819.227	954.38
819.409	906.91
819.591	927.84
819.774	901.1
819.956	879.98
820.138	959.03
820.32	936.36
820.502	986.35
820.684	1033.43
820.866	1018.13
821.048	1053.19
821.231	1048.93
821.413	1017.16
821.595	1014.83
821.777	1035.18
821.959	1020.06
822.141	1090.97
822.323	993.13
822.505	933.85
822.686	900.33
822.868	876.88
823.05	789.5
823.232	834.45
823.414	766.84
823.596	820.7
823.778	802.68
823.96	836.78
824.141	815.47
824.323	852.86
824.505	864.29
824.687	929.97
824.868	928.81
825.05	1016.96
825.232	1010.57
825.413	1053
825.595	1025.68
825.777	961.16
825.958	1029.36
826.14	991.78
826.321	1036.34
826.503	1018.51
826.685	1015.61
826.866	1040.02
827.048	1025.88
827.229	985.38
827.411	938.11
827.592	944.11
827.773	914.08
827.955	923.58
828.136	942.56
828.318	903.04
828.499	920.28
828.68	876.69
828.862	907.5
829.043	948.18
829.224	922.22
829.406	898.39
829.587	867.78
829.768	880.57
829.949	924.55
830.131	864.29
830.312	953.61
830.493	922.22
830.674	932.49
830.855	907.69
831.036	874.56
831.218	934.23
831.399	954.77
831.58	880.37
831.761	909.82
831.942	941.79
832.123	900.13
832.304	871.65
832.485	889.86
832.666	896.26
832.847	934.43
833.028	926.1
833.209	915.05
833.389	906.91
833.57	875.53
833.751	889.48
833.932	945.66
834.113	899.75
834.294	904.2
834.475	913.31
834.655	931.13
834.836	961.55
835.017	937.33
835.198	889.86
835.378	951.09
835.559	954
835.74	926.87
835.92	915.05
836.101	896.26
836.281	913.89
836.462	954
836.643	957.87
836.823	968.72
837.004	981.7
837.184	1009.6
837.365	967.17
837.545	974.34
837.726	941.6
837.906	978.79
838.087	968.53
838.267	956.32
838.448	920.09
838.628	955.93
838.808	948.57
838.989	1003.21
839.169	925.13
839.349	962.13
839.53	986.16
839.71	1005.73
839.89	922.61
840.07	998.94
840.251	924.35
840.431	989.84
840.611	979.96
840.791	908.46
840.971	934.43
841.151	943.34
841.332	933.46
841.512	996.23
841.692	902.26
841.872	949.35
842.052	955.16
842.232	961.75
842.412	889.48
842.592	938.69
842.772	966.4
842.952	965.04
843.132	913.5
843.312	906.33
843.492	905.56
843.672	929.58
843.851	873.4
844.031	958.26
844.211	931.91
844.391	929.39
844.571	907.88
844.751	931.91
844.93	958.65
845.11	922.8
845.29	931.71
845.47	930.94
845.649	912.15
845.829	940.82
846.009	885.41
846.188	914.28
846.368	900.33
846.547	927.06
846.727	948.96
846.907	876.88
847.086	903.62
847.266	950.12
847.445	904.59
847.625	897.23
847.804	902.85
847.984	923.38
848.163	900.52
848.343	894.9
848.522	917.57
848.701	895.48
848.881	841.82
849.06	931.71
849.239	901.88
849.419	918.15
849.598	836
849.777	849.57
849.957	865.84
850.136	812.37
850.315	802.68
850.494	827.48
850.674	821.28
850.853	878.24
851.032	844.53
851.211	918.73
851.39	855.38
851.569	856.15
851.748	811.78
851.927	879.02
852.107	832.13
852.286	811.2
852.465	800.93
852.644	850.15
852.823	838.13
853.002	846.08
853.181	827.09
853.359	857.51
853.538	764.9
853.717	857.12
853.896	765.29
854.075	783.89
854.254	737
854.433	707.55
854.611	764.51
854.79	702.9
854.969	774.59
855.148	782.14
855.327	711.04
855.505	746.3
855.684	716.07
855.863	728.09
856.041	716.85
856.22	776.72
856.399	732.93
856.577	822.44
856.756	783.69
856.934	899.94
857.113	887.15
857.291	824.57
857.47	761.99
857.648	802.29
857.827	800.16
858.005	824.57
858.184	794.73
858.362	847.05
858.541	806.36
858.719	816.05
858.898	811.78
859.076	756.18
859.254	865.26
859.433	772.26
859.611	784.47
859.789	762.19
859.967	831.93
860.146	822.83
860.324	759.28
860.502	772.84
860.68	756.76
860.859	729.64
861.037	765.67
861.215	750.37
861.393	782.72
861.571	745.52
861.749	755.99
861.927	803.07
862.105	760.44
862.283	737
862.461	718.4
862.639	728.09
862.817	757.54
862.995	733.7
863.173	710.65
863.351	745.14
863.529	734.67
863.707	769.55
863.885	724.99
864.063	718.01
864.241	739.52
864.418	817.79
864.596	713.55
864.774	703.09
864.952	737.58
865.129	734.87
865.307	728.09
865.485	700.19
865.663	760.44
865.84	668.61
866.018	713.17
866.196	625.4
866.373	655.82
866.551	630.63
866.728	584.71
866.906	633.73
867.084	648.65
867.261	675.39
867.439	678.29
867.616	703.67
867.794	649.42
867.971	677.71
868.149	673.26
868.326	709.29
868.503	715.49
868.681	696.7
868.858	675
869.035	671.51
869.213	701.93
869.39	665.89
869.567	745.14
869.745	657.37
869.922	689.14
870.099	718.59
870.276	734.67
870.454	678.87
870.631	706
870.808	633.92
870.985	710.45
871.162	778.46
871.339	675.77
871.517	628.89
871.694	653.3
871.871	663.18
872.048	644.97
872.225	675.97
872.402	669.77
872.579	623.66
872.756	673.64
872.933	618.62
873.11	681.78
873.287	677.91
873.463	652.91
873.64	632.37
873.817	662.6
873.994	631.79
874.171	644.97
874.348	663.18
874.524	604.67
874.701	640.9
874.878	597.31
875.055	656.01
875.231	640.51
875.408	648.46
875.585	617.65
875.762	615.13
875.938	637.61
876.115	628.69
876.291	629.66
876.468	597.5
876.645	576.96
876.821	647.1
876.998	590.91
877.174	616.88
877.351	569.79
877.527	586.07
877.704	641.87
877.88	613.19
878.057	585.29
878.233	628.31
878.409	594.4
878.586	623.27
878.762	598.66
878.938	583.74
879.115	557.59
879.291	618.04
879.467	543.64
879.644	579.48
879.82	583.16
879.996	566.69
880.172	550.42
880.349	597.31
880.525	610.09
880.701	551.78
880.877	559.53
881.053	580.06
881.229	578.71
881.405	632.96
881.581	550.03
881.757	557.2
881.933	590.14
882.109	604.09
882.285	567.86
882.461	537.83
882.637	595.37
882.813	550.81
882.989	558.56
883.165	616.88
883.341	581.03
883.517	583.36
883.693	571.93
883.869	593.82
884.044	546.35
884.22	608.93
884.396	590.91
884.572	611.64
884.747	587.62
884.923	585.29
885.099	583.36
885.275	605.83
885.45	526.4
885.626	590.72
885.801	541.51
885.977	594.59
886.153	501.6
886.328	579.68
886.504	531.43
886.679	580.45
886.855	575.61
887.03	584.52
887.206	605.64
887.381	573.09
887.557	590.53
887.732	549.06
887.908	594.21
888.083	598.08
888.258	558.17
888.434	539.96
888.609	569.6
888.784	608.16
888.96	551
889.135	521.94
889.31	529.3
889.485	579.68
889.661	553.33
889.836	583.55
890.011	574.25
890.186	569.79
890.361	555.26
890.537	553.13
890.712	584.52
890.887	552.16
891.062	560.69
891.237	598.08
891.412	559.33
891.587	580.84
891.762	608.16
891.937	622.49
892.112	553.13
892.287	549.06
892.462	516.71
892.637	502.95
892.812	497.72
892.987	528.14
893.161	477.18
893.336	508.76
893.511	497.14
893.686	528.91
893.861	495.59
894.035	524.07
894.21	530.85
894.385	481.83
894.56	508.76
894.734	464.59
894.909	438.05
895.084	473.89
895.258	467.88
895.433	483.96
895.608	447.93
895.782	411.5
895.957	436.11
896.131	461.68
896.306	362.68
896.48	408.98
896.655	427.2
896.829	364.03
897.004	364.42
897.178	385.35
897.353	380.12
897.527	401.23
897.701	378.95
897.876	339.62
898.05	421.19
898.224	377.21
898.399	439.21
898.573	394.45
898.747	306.49
898.921	345.63
899.096	293.9
899.27	320.25
899.444	301.45
899.618	299.71
899.792	333.04
899.967	316.37
900.141	357.64
900.315	286.73
900.489	308.82
900.663	371.01
900.837	339.43
901.011	278.98
901.185	388.06
901.359	328.19
901.533	366.36
901.707	345.05
901.881	310.56
902.055	283.05
902.229	344.47
902.403	364.23
902.576	334.2
902.75	327.61
902.924	411.7
903.098	363.65
903.272	396.39
903.446	419.64
903.619	374.3
903.793	419.83
903.967	372.56
904.14	438.82
904.314	417.51
904.488	411.31
904.661	416.93
904.835	417.32
905.009	432.82
905.182	484.35
905.356	448.51
905.529	408.02
905.703	379.15
905.876	408.02
906.05	365.58
906.223	379.15
906.397	322.77
906.57	319.47
906.744	343.11
906.917	328.58
907.09	332.26
907.264	310.17
907.437	336.91
907.61	277.62
907.784	287.7
907.957	312.89
908.13	292.93
908.304	336.33
908.477	272.59
908.65	316.37
908.823	257.09
908.996	334
909.17	264.45
909.343	289.83
909.516	299.71
909.689	311.34
909.862	283.82
910.035	299.52
910.208	267.74
910.381	263.09
910.554	357.25
910.727	276.65
910.9	266.19
911.073	275.1
911.246	344.66
911.419	337.49
911.592	318.5
911.765	261.93
911.938	252.05
912.11	277.24
912.283	298.35
912.456	352.8
912.629	293.51
912.802	273.75
912.974	266.97
913.147	211.36
913.32	211.75
913.493	223.57
913.665	234.22
913.838	257.86
914.01	260.57
914.183	238.87
914.356	217.76
914.528	255.73
914.701	296.42
914.873	306.49
915.046	254.37
915.218	237.91
915.391	207.29
915.563	202.06
915.736	282.66
915.908	253.99
916.081	262.71
916.253	224.73
916.425	237.91
916.598	244.69
916.77	245.46
916.942	225.12
917.115	186.76
917.287	254.18
917.459	215.04
917.632	191.79
917.804	179.98
917.976	261.93
918.148	222.21
918.32	205.94
918.493	266.39
918.665	301.45
918.837	256.31
919.009	304.94
919.181	268.91
919.353	263.48
919.525	250.5
919.697	250.11
919.869	263.67
920.041	317.92
920.213	324.51
920.385	286.92
920.557	249.34
920.729	276.65
920.901	261.74
921.073	251.27
921.244	260.77
921.416	289.83
921.588	281.5
921.76	224.34
921.932	310.56
922.103	267.36
922.275	274.14
922.447	283.82
922.619	193.73
922.79	252.05
922.962	236.74
923.134	276.07
923.305	231.51
923.477	216.79
923.648	205.55
923.82	232.87
923.991	220.08
924.163	179.01
924.335	233.26
924.506	188.89
924.677	263.48
924.849	206.52
925.02	222.02
925.192	253.21
925.363	216.21
925.535	259.61
925.706	202.45
925.877	243.14
926.049	197.8
926.22	260.38
926.391	247.98
926.562	254.96
926.734	197.8
926.905	252.82
927.076	176.68
927.247	200.51
927.419	154.98
927.59	186.95
927.761	185.79
927.932	200.51
928.103	204.97
928.274	145.1
928.445	145.68
928.616	162.73
928.787	161.76
928.958	190.82
929.129	203.42
929.3	170.09
929.471	148.01
929.642	111.78
929.813	61.4
929.984	153.24
930.155	79.23
930.326	114.1
930.496	91.63
930.667	57.53
930.838	91.43
931.009	55.78
931.18	94.73
931.35	71.09
931.521	106.93
931.692	67.21
931.863	26.53
932.033	74
932.204	66.83
932.374	86.01
932.545	37.57
932.716	81.55
932.886	101.12
933.057	5.99
933.227	59.08
933.398	91.24
933.568	39.7
933.739	-17.65
933.909	20.13
934.08	86.78
934.25	-11.64
934.421	5.02
934.591	40.48
934.761	15.68
934.932	-43.42
935.102	14.13
935.272	29.43
935.443	22.85
935.613	5.02
935.783	62.76
935.953	-3.5
936.123	135.41
936.294	3.86
936.464	27.11
936.634	12
936.804	-22.3
936.974	-16.29
937.144	52.88
937.314	34.86
937.484	3.47
937.655	-25.4
937.825	62.56
937.995	6.77
938.165	55.4
938.334	21.88
938.504	33.89
938.674	-13.97
938.844	6.57
939.014	55.2
939.184	29.05
939.354	90.85
939.524	82.91
939.694	53.46
939.863	34.28
940.033	101.12
940.203	93.76
940.373	85.04
940.542	51.71
940.712	43.38
940.882	84.65
941.051	73.41
941.221	76.32
941.391	93.37
941.56	33.11
941.73	19.55
941.899	136.96
942.069	42.61
942.238	92.98
942.408	65.47
942.577	83.49
942.747	62.37
942.916	-13.97
943.086	26.14
943.255	78.45
943.425	55.78
943.594	39.9
943.763	-19.78
943.933	-12.8
944.102	-36.83
944.271	67.6
944.441	39.51
944.61	3.86
944.779	57.72
944.948	122.43
945.117	12.58
945.287	7.73
945.456	-21.52
945.625	17.61
945.794	48.23
945.963	24.98
946.132	52.88
946.301	35.05
946.47	59.27
946.639	-26.37
946.808	8.51
946.977	63.73
947.146	61.21
947.315	12.58
947.484	33.89
947.653	24.78
947.822	51.52
947.991	29.24
948.16	80.58
948.329	85.23
948.498	8.7
948.666	39.12
948.835	65.66
949.004	-8.54
949.173	-13.38
949.341	33.7
949.51	40.86
949.679	73.22
949.847	60.43
950.016	101.89
950.185	66.05
950.353	33.5
950.522	37.38
950.69	83.88
950.859	0.76
951.028	82.33
951.196	44.93
951.365	35.63
951.533	46.29
951.701	46.1
951.87	82.52
952.038	19.75
952.207	63.53
952.375	87.95
952.543	31.18
952.712	49.39
952.88	21.49
953.048	102.48
953.217	35.05
953.385	20.71
953.553	92.98
953.721	5.99
953.89	43.19
954.058	-25.01
954.226	17.23
954.394	29.43
954.562	7.15
954.73	22.85
954.898	30.01
955.067	67.02
955.235	9.28
955.403	59.27
955.571	103.44
955.739	83.88
955.907	3.86
956.075	10.83
956.243	21.49
956.41	64.11
956.578	22.26
956.746	24.01
956.914	27.11
957.082	67.41
957.25	44.35
957.418	13.93
957.585	18.58
957.753	61.4
957.921	22.07
958.089	48.61
958.256	32.53
958.424	76.51
958.592	53.26
958.759	12.19
958.927	50.36
959.095	27.3
959.262	46.1
959.43	43.96
959.597	30.21
959.765	40.67
959.932	8.12
960.1	80.78
960.267	47.45
960.435	32.34
960.602	76.51
960.77	23.43
960.937	-15.32
961.104	32.15
961.272	-6.22
961.439	3.86
961.606	45.32
961.774	63.34
961.941	28.85
962.108	58.69
962.275	65.08
962.443	58.3
962.61	58.69
962.777	100.73
962.944	64.5
963.111	58.69
963.278	74.19
963.446	67.41
963.613	47.06
963.78	34.28
963.947	93.18
964.114	27.3
964.281	103.83
964.448	82.13
964.615	35.25
964.782	67.21
964.949	79.23
965.116	57.53
965.282	115.46
965.449	45.51
965.616	18.39
965.783	74.58
965.95	43.96
966.117	-11.25
966.283	52.3
966.45	49.97
966.617	84.85
966.784	82.52
966.95	95.11
967.117	90.85
967.284	12
967.45	6.96
967.617	70.31
967.784	72.83
967.95	136.96
968.117	63.34
968.283	74.58
968.45	142.39
968.616	60.63
968.783	100.54
968.949	62.56
969.116	93.37
969.282	48.81
969.449	82.33
969.615	66.25
969.781	24.2
969.948	45.51
970.114	6.77
970.28	105.77
970.447	52.68
970.613	85.81
970.779	67.21
970.945	69.35
971.112	74.96
971.278	69.35
971.444	51.13
971.61	112.16
971.776	63.15
971.942	68.38
972.108	88.33
972.275	43.38
972.441	57.72
972.607	110.81
972.773	54.43
972.939	83.1
973.105	32.15
973.271	48.42
973.437	46.29
973.602	58.88
973.768	91.63
973.934	58.69
974.1	81.16
974.266	-10.87
974.432	65.66
974.598	27.5
974.763	63.15
974.929	58.3
975.095	131.34
975.261	37.57
975.426	41.06
975.592	46.29
975.758	114.49
975.923	-4.67
976.089	-3.7
976.255	81.75
976.42	87.75
976.586	88.53
976.751	68.96
976.917	133.09
977.082	74.77
977.248	20.13
977.413	-5.63
977.579	36.8
977.744	83.1
977.91	26.14
978.075	44.16
978.24	93.18
978.406	52.68
978.571	37.18
978.736	37.57
978.902	91.05
979.067	11.8
979.232	4.05
979.397	62.95
979.563	104.99
979.728	34.47
979.893	49.39
980.058	17.23
980.223	79.42
980.388	77.87
980.554	42.22
980.719	53.26
980.884	70.51
981.049	71.67
981.214	32.92
981.379	58.3
981.544	25.17
981.709	57.33
981.874	35.25
982.039	38.15
982.204	86.4
982.368	64.5
982.533	4.63
982.698	77.68
982.863	81.55
983.028	63.73
983.193	66.44
983.357	60.63
983.522	55.78
983.687	50.55
983.852	61.21
984.016	28.85
984.181	47.45
984.346	40.86
984.51	70.51
984.675	60.05
984.839	57.91
985.004	75.74
985.168	87.56
985.333	39.51
985.498	45.51
985.662	65.28
985.827	70.12
985.991	42.41
986.155	22.26
986.32	69.93
986.484	101.89
986.649	65.66
986.813	-6.6
986.977	44.16
987.142	77.68
987.306	36.41
987.47	28.46
987.634	65.66
987.799	64.7
987.963	87.75
988.127	88.14
988.291	129.99
988.455	47.65
988.62	38.54
988.784	76.71
988.948	95.11
989.112	25.95
989.276	72.25
989.44	46.1
989.604	31.37
989.768	32.15
989.932	117.98
990.096	5.6
990.26	42.22
990.424	26.14
990.588	53.85
990.752	135.22
990.915	90.66
991.079	33.5
991.243	4.63
991.407	67.8
991.571	43
991.734	45.32
991.898	43.58
992.062	105.19
992.226	55.4
992.389	56.36
992.553	19.16
992.717	11.03
992.88	32.34
993.044	20.33
993.207	45.32
993.371	86.59
993.535	57.53
993.698	30.4
993.862	89.5
994.025	89.5
994.189	70.31
994.352	76.71
994.515	26.14
994.679	85.04
994.842	36.8
995.006	67.02
995.169	27.3
995.332	41.45
995.496	62.95
995.659	-11.83
995.822	44.16
995.985	39.51
996.149	99.18
996.312	79.61
996.475	113.13
996.638	30.98
996.801	93.95
996.964	80.58
997.128	39.51
997.291	54.43
997.454	67.6
997.617	-7.96
997.78	81.75
997.943	20.91
998.106	73.41
998.269	22.46
998.432	47.26
998.595	55.2
998.758	-3.12
998.92	-17.84
999.083	12.19
999.246	57.72
999.409	13.16
999.572	14.9
999.735	39.7
999.897	44.74
1000.06	12.38
1000.223	37.57
1000.386	44.55
1000.548	77.48
1000.711	51.52
1000.874	46.87
1001.036	17.61
1001.199	74.58
1001.361	24.59
1001.524	56.36
1001.687	65.47
1001.849	20.91
1002.012	57.33
1002.174	39.12
1002.337	80.97
1002.499	22.85
1002.661	60.05
1002.824	0.76
1002.986	28.66
1003.149	47.26
1003.311	12.96
1003.473	91.24
1003.636	12.58
1003.798	49
1003.96	37.76
1004.123	53.07
1004.285	19.36
1004.447	39.9
1004.609	30.4
1004.771	81.55
1004.933	-11.83
1005.096	18.97
1005.258	-20.75
1005.42	14.13
1005.582	74.19
1005.744	25.95
1005.906	-7.77
1006.068	36.02
1006.23	34.86
1006.392	-27.53
1006.554	25.95
1006.716	34.08
1006.878	45.13
1007.04	-14.55
1007.202	7.15
1007.363	23.23
1007.525	21.3
1007.687	55.98
1007.849	56.36
1008.011	-16.87
1008.172	-16.1
1008.334	4.44
1008.496	26.91
1008.658	-0.21
1008.819	22.07
1008.981	-3.89
1009.143	3.67
1009.304	8.7
1009.466	30.79
1009.627	75.74
1009.789	95.31
1009.95	-4.67
1010.112	18.2
1010.273	37.57
1010.435	9.86
1010.596	5.99
1010.758	16.45
1010.919	43.19
1011.081	-6.8
1011.242	25.95
1011.403	59.08
1011.565	6.77
1011.726	66.63
1011.887	-17.45
1012.049	29.43
1012.21	49.2
1012.371	77.29
1012.532	-31.6
1012.693	14.32
1012.855	13.74
1013.016	38.15
1013.177	43
1013.338	9.86
1013.499	61.79
1013.66	71.86
1013.821	73.22
1013.982	35.44
1014.143	9.86
1014.304	-3.7
1014.465	26.33
1014.626	34.86
1014.787	22.65
1014.948	104.61
1015.109	5.41
1015.27	75.55
1015.431	-7.57
1015.592	-19.2
1015.752	79.42
1015.913	15.68
1016.074	40.09
1016.235	24.78
1016.395	24.78
1016.556	8.12
1016.717	24.01
1016.877	53.46
1017.038	10.06
1017.199	34.66
1017.359	29.24
1017.52	22.07
1017.681	-7.38
1017.841	25.75
1018.002	10.64
1018.162	4.44
1018.323	91.43
1018.483	1.53
1018.644	-0.4
1018.804	2.89
1018.964	-7.96
1019.125	11.03
1019.285	38.73
1019.446	-19
1019.606	-1.18
1019.766	-38.38
1019.926	34.66
1020.087	18.78
1020.247	-16.68
1020.407	46.87
1020.567	43.77
1020.728	-4.86
1020.888	-21.13
1021.048	-2.34
1021.208	16.84
1021.368	-9.7
1021.528	72.64
1021.688	39.31
1021.848	35.44
1022.008	31.18
1022.168	25.75
1022.328	36.6
1022.488	46.29
1022.648	16.06
1022.808	10.64
1022.968	24.98
1023.128	-0.6
1023.288	-20.17
1023.448	-16.87
1023.608	24.59
1023.767	47.26
1023.927	7.15
1024.087	-11.45
1024.247	-22.68
1024.406	12.19
1024.566	-45.35
1024.726	-16.29
1024.885	15.29
1025.045	33.11
1025.205	6.18
1025.364	22.65
1025.524	21.3
1025.683	-2.34
1025.843	29.05
1026.003	-0.4
1026.162	97.24
1026.321	30.6
1026.481	31.37
1026.64	-0.4
1026.8	22.26
1026.959	24.01
1027.119	33.7
1027.278	8.51
1027.437	4.63
1027.597	8.12
1027.756	30.4
1027.915	13.16
1028.074	27.69
1028.234	-15.32
1028.393	10.06
1028.552	-7.18
1028.711	-48.45
1028.87	34.86
1029.03	-11.83
1029.189	-3.89
1029.348	-59.11
1029.507	-14.74
1029.666	9.28
1029.825	-19
1029.984	-28.3
1030.143	29.82
1030.302	-1.76
1030.461	-25.59
1030.62	3.86
1030.779	50.94
1030.938	9.28
1031.097	-35.28
1031.255	18.78
1031.414	65.47
1031.573	24.98
1031.732	-32.95
1031.891	-14.35
1032.049	48.03
1032.208	16.06
1032.367	12.77
1032.525	-1.95
1032.684	-6.99
1032.843	23.04
1033.001	-28.5
1033.16	155.37
1033.319	51.71
1033.477	11.61
1033.636	-5.05
1033.794	-14.16
1033.953	49.2
1034.111	31.76
1034.27	-9.7
1034.428	13.55
1034.587	-20.55
1034.745	15.1
1034.903	15.48
1035.062	31.56
1035.22	-30.05
1035.378	29.82
1035.537	-17.26
1035.695	23.81
1035.853	16.26
1036.011	27.11
1036.17	14.13
1036.328	-47.48
1036.486	49.78
1036.644	-10.48
1036.802	-81.78
1036.96	-14.55
1037.119	8.51
1037.277	12.77
1037.435	-35.28
1037.593	-2.73
1037.751	8.31
1037.909	32.53
1038.067	32.53
