Data from oakcork_FLMT105791__24__17-26-59-066.txt Node

Date: Mon Mar 20 17:26:59 GMT 2023
User: antho
Spectrometer: FLMT10579
Trigger mode: 0
Integration Time (sec): 1.000000E-1
Scans to average: 10
Electric dark correction enabled: true
Nonlinearity correction enabled: false
Boxcar width: 0
XAxis mode: Wavelengths
Number of Pixels in Spectrum: 3648
>>>>>Begin Spectral Data<<<<<
345.248	-167.53
345.464	-167.53
345.681	-167.53
345.898	-166.75
346.114	-165.4
346.331	-39.27
346.548	11.3
346.764	-19.12
346.981	-11.17
347.197	-8.46
347.414	27.38
347.631	-18.73
347.847	62.06
348.064	15.95
348.28	32.23
348.497	-51.67
348.713	-0.52
348.93	33
349.146	20.99
349.363	-14.85
349.579	16.92
349.796	-0.9
350.012	5.88
350.229	39.4
350.445	14.21
350.661	-9.43
350.878	6.46
351.094	24.28
351.311	40.75
351.527	43.08
351.743	-14.27
351.96	19.63
352.176	66.13
352.392	33
352.609	27
352.825	-18.92
353.041	14.79
353.257	0.84
353.474	7.43
353.69	36.68
353.906	16.34
354.122	-4
354.339	55.09
354.555	45.01
354.771	-8.07
354.987	92.87
355.203	62.26
355.42	0.06
355.636	-24.15
355.852	-12.53
356.068	4.33
356.284	-34.81
356.5	69.43
356.716	29.51
356.932	31.45
357.148	53.35
357.364	31.26
357.58	67.88
357.796	82.79
358.012	41.91
358.228	47.92
358.444	-27.84
358.66	50.25
358.876	21.38
359.092	-15.44
359.308	36.3
359.524	41.53
359.74	25.64
359.956	-3.42
360.172	7.23
360.388	69.62
360.604	37.07
360.819	85.12
361.035	34.55
361.251	54.31
361.467	-4.39
361.683	32.03
361.898	-0.32
362.114	41.14
362.33	26.22
362.546	67.68
362.762	28.74
362.977	29.13
363.193	-12.34
363.409	52.76
363.624	-15.44
363.84	25.83
364.056	6.85
364.271	31.65
364.487	33.97
364.703	-3.81
364.918	4.71
365.134	15.18
365.35	38.43
365.565	116.12
365.781	50.44
365.996	34.55
366.212	97.52
366.427	33.39
366.643	-10.2
366.858	12.85
367.074	2.2
367.289	63.61
367.505	112.24
367.72	-29.38
367.936	34.16
368.151	66.91
368.367	37.46
368.582	33.39
368.798	3.55
369.013	60.13
369.228	18.86
369.444	34.55
369.659	80.66
369.874	54.31
370.09	79.31
370.305	-32.48
370.52	5.3
370.736	79.31
370.951	34.36
371.166	75.04
371.381	107.4
371.597	61.68
371.812	0.06
372.027	8.59
372.242	39.2
372.458	105.08
372.673	-2.07
372.888	33.58
373.103	27.19
373.318	105.27
373.533	58.58
373.749	38.04
373.964	-1.49
374.179	70.78
374.394	30.87
374.609	95
374.824	8.59
375.039	81.63
375.254	6.26
375.469	77.76
375.684	57.41
375.899	70.01
376.114	57.41
376.329	33.78
376.544	76.79
376.759	76.59
376.974	30.87
377.189	4.91
377.404	-6.14
377.619	98.88
377.834	-5.94
378.049	-21.05
378.264	32.61
378.478	61.48
378.693	19.44
378.908	62.45
379.123	32.23
379.338	105.66
379.553	70.2
379.767	44.43
379.982	39.01
380.197	80.28
380.412	29.13
380.626	47.73
380.841	91.9
381.056	63.03
381.271	105.08
381.485	31.06
381.7	23.31
381.915	47.73
382.129	52.38
382.344	40.36
382.559	22.73
382.773	66.33
382.988	2.58
383.202	58
383.417	7.43
383.632	128.52
383.846	60.13
384.061	65.55
384.275	25.45
384.49	66.71
384.704	74.27
384.919	54.51
385.133	43.85
385.348	55.48
385.562	21.18
385.777	72.91
385.991	54.12
386.206	30.1
386.42	35.33
386.634	98.68
386.849	76.59
387.063	68.84
387.277	8.98
387.492	29.71
387.706	-4.2
387.92	38.62
388.135	70.39
388.349	56.83
388.563	44.63
388.778	57.61
388.992	65.74
389.206	93.64
389.42	94.23
389.635	51.41
389.849	80.86
390.063	87.25
390.277	35.91
390.491	93.26
390.706	54.31
390.92	94.03
391.134	55.28
391.348	80.86
391.562	16.53
391.776	44.63
391.99	43.46
392.205	80.47
392.419	30.29
392.633	55.86
392.847	115.73
393.061	15.56
393.275	99.65
393.489	50.25
393.703	73.88
393.917	97.33
394.131	27.58
394.345	52.57
394.559	96.36
394.773	55.67
394.986	74.66
395.2	53.73
395.414	80.47
395.628	23.9
395.842	67.29
396.056	60.51
396.27	7.23
396.484	75.24
396.697	106.24
396.911	94.42
397.125	73.88
397.339	87.83
397.553	77.76
397.766	139.76
397.98	99.84
398.194	125.81
398.408	79.5
398.621	99.07
398.835	99.26
399.049	71.94
399.262	134.14
399.476	114.76
399.69	105.66
399.903	132.78
400.117	102.17
400.331	113.02
400.544	75.82
400.758	208.15
400.971	119.99
401.185	116.31
401.398	63.42
401.612	144.41
401.826	129.1
402.039	135.3
402.253	109.92
402.466	116.51
402.68	87.83
402.893	116.51
403.106	96.94
403.32	110.31
403.533	120.96
403.747	137.63
403.96	103.53
404.174	114.96
404.387	50.63
404.6	108.56
404.814	136.85
405.027	95.19
405.24	116.12
405.454	98.88
405.667	123.87
405.88	50.05
406.094	125.23
406.307	148.28
406.52	143.24
406.733	69.43
406.947	75.04
407.16	155.84
407.373	163.59
407.586	90.16
407.799	83.76
408.012	139.37
408.226	119.03
408.439	172.69
408.652	83.38
408.865	138.4
409.078	141.11
409.291	145.96
409.504	113.6
409.717	152.93
409.93	131.04
410.143	115.73
410.357	83.96
410.57	58.96
410.783	101.78
410.996	128.52
411.209	104.69
411.421	174.63
411.634	111.47
411.847	75.24
412.06	149.83
412.273	126.97
412.486	140.92
412.699	224.04
412.912	132.98
413.125	168.24
413.338	117.09
413.55	171.53
413.763	126.39
413.976	141.89
414.189	113.41
414.402	126
414.615	168.24
414.827	99.65
415.04	166.11
415.253	151.38
415.466	177.73
415.678	224.62
415.891	123.87
416.104	158.36
416.316	133.56
416.529	106.43
416.742	159.13
416.954	178.12
417.167	163.2
417.38	134.14
417.592	161.26
417.805	113.6
418.017	87.83
418.23	174.82
418.442	111.86
418.655	106.82
418.868	131.62
419.08	187.03
419.293	200.21
419.505	152.74
419.718	160.87
419.93	172.89
420.142	150.02
420.355	179.28
420.567	199.04
420.78	165.72
420.992	157.97
421.205	192.84
421.417	116.12
421.629	148.67
421.842	147.7
422.054	104.69
422.266	184.9
422.479	187.42
422.691	143.83
422.903	191.29
423.115	142.66
423.328	146.34
423.54	166.3
423.752	147.12
423.964	131.23
424.177	172.89
424.389	151.57
424.601	244.19
424.813	214.93
425.025	203.89
425.238	178.31
425.45	167.46
425.662	139.37
425.874	445.49
426.086	154.48
426.298	187.42
426.51	181.8
426.722	174.82
426.934	146.92
427.146	198.46
427.358	149.44
427.57	210.47
427.782	158.16
427.994	172.5
428.206	174.05
428.418	160.1
428.63	196.33
428.842	186.26
429.054	189.16
429.266	198.85
429.478	143.44
429.69	178.51
429.902	141.31
430.114	179.47
430.325	183.35
430.537	144.6
430.749	144.21
430.961	84.34
431.173	182.19
431.384	192.26
431.596	93.84
431.808	163.01
432.02	198.46
432.231	224.23
432.443	239.73
432.655	164.75
432.867	148.67
433.078	213.77
433.29	282.16
433.502	222.87
433.713	242.83
433.925	215.51
434.136	253.87
434.348	172.89
434.56	151.57
434.771	282.74
434.983	122.9
435.194	179.09
435.406	215.71
435.617	244.96
435.829	269.95
436.04	249.42
436.252	264.34
436.463	271.7
436.675	256.78
436.886	227.91
437.098	252.13
437.309	292.04
437.521	221.91
437.732	236.24
437.943	239.34
438.155	270.54
438.366	178.89
438.578	274.6
438.789	254.07
439	265.11
439.211	220.36
439.423	244.19
439.634	254.45
439.845	279.25
440.057	229.66
440.268	268.02
440.479	222.49
440.69	226.94
440.902	239.34
441.113	254.65
441.324	226.94
441.535	269.18
441.746	302.7
441.957	221.13
442.168	243.41
442.38	260.65
442.591	316.84
442.802	237.99
443.013	260.65
443.224	274.99
443.435	258.14
443.646	222.1
443.857	248.25
444.068	268.6
444.279	236.44
444.49	336.99
444.701	277.12
444.912	341.64
445.123	310.45
445.334	298.24
445.545	275.38
445.756	254.07
445.967	249.8
446.178	290.88
446.388	314.13
446.599	305.22
446.81	292.62
447.021	279.45
447.232	324.98
447.443	342.03
447.653	249.42
447.864	335.44
448.075	287
448.286	307.74
448.496	308.7
448.707	326.92
448.918	265.69
449.129	352.49
449.339	269.95
449.55	311.22
449.761	299.21
449.971	344.55
450.182	301.73
450.393	348.03
450.603	284.68
450.814	362.95
451.024	343.19
451.235	336.6
451.446	384.85
451.656	386.4
451.867	303.67
452.077	343.77
452.288	369.35
452.498	371.48
452.709	305.99
452.919	333.31
453.13	268.79
453.34	353.27
453.55	276.74
453.761	357.53
453.971	319.94
454.182	324.01
454.392	324.4
454.602	376.32
454.813	344.16
455.023	360.63
455.233	260.07
455.444	347.07
455.654	270.92
455.864	316.45
456.075	303.86
456.285	310.06
456.495	351.33
456.705	351.72
456.916	374.19
457.126	402.87
457.336	333.7
457.546	317.23
457.756	294.75
457.967	376.13
458.177	326.14
458.387	343.97
458.597	322.65
458.807	322.27
459.017	302.7
459.227	317.42
459.437	327.69
459.647	375.16
459.857	387.75
460.068	312.39
460.278	390.66
460.488	364.7
460.698	402.28
460.908	352.1
461.117	318.78
461.327	344.16
461.537	384.07
461.747	361.79
461.957	375.55
462.167	466.41
462.377	408.29
462.587	374.77
462.797	411
463.007	388.14
463.216	386.2
463.426	413.33
463.636	406.16
463.846	325.95
464.056	383.49
464.265	418.75
464.475	332.53
464.685	389.88
464.895	386.98
465.104	351.91
465.314	414.88
465.524	373.61
465.733	355.01
465.943	459.83
466.153	456.15
466.362	421.08
466.572	389.3
466.782	372.06
466.991	385.82
467.201	458.66
467.41	338.15
467.62	429.21
467.829	380.58
468.039	433.86
468.249	398.41
468.458	395.31
468.668	430.76
468.877	419.33
469.086	466.03
469.296	415.85
469.505	404.03
469.715	480.75
469.924	414.68
470.134	455.37
470.343	452.46
470.552	408.68
470.762	443.55
470.971	399.57
471.18	422.24
471.39	427.66
471.599	385.04
471.808	432.7
472.018	423.6
472.227	496.64
472.436	493.73
472.645	442.39
472.855	417.01
473.064	509.04
473.273	474.16
473.482	477.65
473.691	505.74
473.901	504.19
474.11	487.15
474.319	569.88
474.528	468.35
474.737	514.27
474.946	492.38
475.155	484.05
475.364	537.52
475.573	493.35
475.783	505.55
475.992	485.01
476.201	532.09
476.41	490.83
476.619	467.38
476.828	505.55
477.037	486.37
477.245	494.51
477.454	526.67
477.663	529.77
477.872	521.05
478.081	596.42
478.29	495.28
478.499	590.61
478.708	524.73
478.917	618.12
479.125	559.22
479.334	567.55
479.543	552.05
479.752	558.44
479.961	550.11
480.169	596.81
480.378	547.98
480.587	675.47
480.796	609.01
481.004	575.69
481.213	614.63
481.422	603.01
481.63	592.93
481.839	605.52
482.048	630.52
482.256	619.09
482.465	628.19
482.674	654.35
482.882	653.96
483.091	710.34
483.299	624.51
483.508	681.86
483.716	607.85
483.925	663.07
484.134	616.18
484.342	630.71
484.551	667.91
484.759	678.18
484.967	666.36
485.176	679.73
485.384	684.38
485.593	664.62
485.801	674.89
486.01	673.14
486.218	630.13
486.426	573.94
486.635	577.24
486.843	579.37
487.051	603.39
487.26	621.99
487.468	634.2
487.676	655.51
487.885	629.94
488.093	671.4
488.301	690.58
488.509	674.3
488.717	736.3
488.926	695.42
489.134	682.44
489.342	669.85
489.55	665.59
489.758	692.9
489.967	665.2
490.175	776.22
490.383	704.53
490.591	771.37
490.799	669.46
491.007	788.23
491.215	750.64
491.423	746.96
491.631	717.9
491.839	755.29
492.047	776.6
492.255	696.78
492.463	676.24
492.671	708.99
492.879	760.33
493.087	732.82
493.295	778.15
493.503	751.8
493.711	779.51
493.919	793.65
494.127	803.15
494.334	795.78
494.542	746.19
494.75	792.1
494.958	807.8
495.166	818.65
495.374	823.1
495.581	807.02
495.789	801.4
495.997	871.73
496.205	782.42
496.412	800.43
496.62	790.55
496.828	832.02
497.035	803.53
497.243	838.99
497.451	798.88
497.658	817.87
497.866	782.42
498.074	839.96
498.281	790.17
498.489	868.63
498.696	827.75
498.904	773.31
499.112	778.15
499.319	899.44
499.527	835.7
499.734	851.2
499.942	741.54
500.149	805.47
500.357	835.12
500.564	755.29
500.771	832.4
500.979	800.24
501.186	797.53
501.394	841.12
501.601	792.68
501.808	834.15
502.016	790.55
502.223	793.85
502.43	824.46
502.638	820.97
502.845	799.47
503.052	902.54
503.26	849.06
503.467	913
503.674	837.05
503.881	837.63
504.089	925.6
504.296	852.16
504.503	813.8
504.71	829.5
504.917	758.78
505.125	868.44
505.332	851
505.539	862.82
505.746	882.58
505.953	885.1
506.16	864.95
506.367	907.58
506.574	958.34
506.781	943.03
506.988	842.67
507.195	892.46
507.402	876.58
507.609	931.99
507.816	871.93
508.023	860.11
508.23	850.81
508.437	861.08
508.644	900.6
508.851	964.34
509.058	919.98
509.265	908.55
509.472	944.58
509.679	1011.62
509.885	909.9
510.092	923.08
510.299	927.34
510.506	899.63
510.713	949.43
510.92	917.26
511.126	934.12
511.333	962.6
511.54	981.59
511.746	982.94
511.953	972.29
512.16	1008.33
512.367	944.19
512.573	927.73
512.78	954.46
512.987	972.09
513.193	937.03
513.4	909.32
513.606	933.34
513.813	947.1
514.02	956.21
514.226	1019.56
514.433	1030.41
514.639	941.29
514.846	959.11
515.052	933.15
515.259	945.36
515.465	964.34
515.672	953.88
515.878	1063.16
516.085	983.72
516.291	1012.78
516.497	972.09
516.704	951.17
516.91	935.67
517.117	880.65
517.323	817.87
517.529	901.18
517.736	908.55
517.942	914.94
518.148	918.23
518.354	950.39
518.561	950.78
518.767	907.96
518.973	989.14
519.179	1009.49
519.386	967.83
519.592	936.83
519.798	939.74
520.004	1043.59
520.21	997.86
520.417	1044.94
520.623	1064.32
520.829	1081.37
521.035	1049.98
521.241	1072.84
521.447	1094.16
521.653	1163.13
521.859	1050.76
522.065	1111.59
522.271	1156.93
522.477	1123.02
522.683	1171.65
522.889	1119.73
523.095	1121.86
523.301	1114.11
523.507	1074.78
523.713	1110.24
523.919	1092.41
524.125	1183.67
524.331	1118.57
524.537	1222.22
524.742	1197.03
524.948	1190.84
525.154	1203.62
525.36	1248.96
525.566	1215.44
525.772	1246.83
525.977	1123.6
526.183	1214.67
526.389	1225.52
526.595	1136.39
526.8	1158.87
527.006	1111.79
527.212	1070.52
527.417	1061.99
527.623	1079.43
527.829	1166.81
528.034	1166.62
528.24	1129.8
528.446	1158.09
528.651	1225.52
528.857	1242.37
529.062	1272.4
529.268	1240.05
529.473	1265.62
529.679	1236.75
529.884	1342.54
530.09	1275.7
530.295	1320.65
530.501	1293.91
530.706	1270.85
530.912	1239.47
531.117	1264.65
531.323	1265.04
531.528	1323.75
531.733	1304.95
531.939	1262.72
532.144	1332.66
532.35	1284.61
532.555	1325.49
532.76	1297.98
532.966	1348.55
533.171	1296.81
533.376	1246.25
533.581	1256.52
533.787	1243.92
533.992	1312.31
534.197	1328.2
534.402	1275.7
534.607	1325.1
534.813	1403.96
535.018	1302.43
535.223	1315.22
535.428	1328.4
535.633	1370.24
535.838	1366.18
536.043	1357.07
536.249	1430.89
536.454	1349.9
536.659	1366.95
536.864	1319.1
537.069	1324.33
537.274	1379.54
537.479	1384.78
537.684	1382.45
537.889	1304.76
538.094	1420.23
538.299	1361.72
538.504	1395.82
538.708	1365.79
538.913	1385.16
539.118	1344.48
539.323	1403.57
539.528	1338.28
539.733	1385.36
539.938	1365.01
540.142	1408.8
540.347	1354.36
540.552	1376.64
540.757	1340.41
540.962	1367.34
541.166	1303.6
541.371	1326.46
541.576	1363.08
541.781	1240.82
541.985	1358.23
542.19	1375.48
542.395	1417.71
542.599	1433.02
542.804	1407.06
543.008	1428.56
543.213	1422.17
543.418	1373.34
543.622	1408.22
543.827	1334.6
544.031	1441.35
544.236	1470.22
544.44	1424.11
544.645	1461.11
544.849	1421.2
545.054	1435.15
545.258	1504.71
545.463	1491.53
545.667	1415.97
545.872	1436.31
546.076	1477
546.281	1452.2
546.485	1406.09
546.689	1438.64
546.894	1429.14
547.098	1432.05
547.302	1436.12
547.507	1457.62
547.711	1451.81
547.915	1482.04
548.119	1412.87
548.324	1437.09
548.528	1480.29
548.732	1434.38
548.936	1482.42
549.141	1495.99
549.345	1417.13
549.549	1467.89
549.753	1438.44
549.957	1540.36
550.161	1500.06
550.366	1472.54
550.57	1454.33
550.774	1433.02
550.978	1467.7
551.182	1465.76
551.386	1439.99
551.59	1437.09
551.794	1441.54
551.998	1488.82
552.202	1441.35
552.406	1439.22
552.61	1474.48
552.814	1476.61
553.018	1523.31
553.222	1453.17
553.426	1470.02
553.63	1538.81
553.833	1422.56
554.037	1416.36
554.241	1496.57
554.445	1437.48
554.649	1468.09
554.853	1446.39
555.056	1513.81
555.26	1491.34
555.464	1464.79
555.668	1484.94
555.871	1501.8
556.075	1523.5
556.279	1471.77
556.483	1423.14
556.686	1478.94
556.89	1468.09
557.094	1477.77
557.297	1400.28
557.501	1445.23
557.704	1387.1
557.908	1483.2
558.112	1389.43
558.315	1509.55
558.519	1417.13
558.722	1415.39
558.926	1421.39
559.129	1347
559.333	1343.12
559.536	1354.16
559.74	1351.45
559.943	1356.3
560.147	1367.92
560.35	1363.46
560.553	1351.26
560.757	1330.14
560.96	1414.61
561.164	1381.29
561.367	1447.74
561.57	1390.59
561.774	1404.15
561.977	1400.66
562.18	1353.39
562.384	1439.8
562.587	1372.38
562.79	1357.26
562.993	1360.95
563.197	1396.01
563.4	1433.79
563.603	1432.05
563.806	1413.64
564.009	1347.38
564.212	1386.91
564.416	1282.09
564.619	1334.6
564.822	1304.18
565.025	1376.25
565.228	1329.17
565.431	1362.3
565.634	1238.88
565.837	1299.72
566.04	1292.55
566.243	1287.9
566.446	1235.78
566.649	1314.64
566.852	1249.15
567.055	1280.15
567.258	1304.56
567.461	1372.18
567.664	1342.93
567.867	1235.01
568.07	1298.56
568.273	1322.97
568.475	1363.46
568.678	1260.97
568.881	1250.51
569.084	1282.86
569.287	1190.84
569.489	1200.72
569.692	1248.77
569.895	1268.92
570.098	1212.53
570.3	1187.15
570.503	1149.57
570.706	1170.3
570.909	1162.74
571.111	1149.18
571.314	1168.17
571.516	1163.32
571.719	1155.38
571.922	1155.19
572.124	1155.77
572.327	1157.12
572.529	1118.18
572.732	1127.67
572.935	1174.17
573.137	1250.32
573.34	1157.7
573.542	1191.8
573.745	1211.18
573.947	1185.8
574.15	1169.72
574.352	1146.27
574.554	1193.55
574.757	1133.29
574.959	1125.93
575.162	1131.35
575.364	1123.22
575.566	1208.85
575.769	1109.07
575.971	1136.97
576.173	1032.16
576.376	1123.8
576.578	1163.71
576.78	1165.26
576.982	1037.39
577.185	1109.46
577.387	1049.21
577.589	1085.63
577.791	1128.84
577.993	1116.44
578.196	1098.42
578.398	1081.56
578.6	1137.17
578.802	1046.3
579.004	1044.17
579.206	1079.43
579.408	1117.6
579.61	1071.49
579.812	1117.02
580.014	1067.81
580.216	1039.71
580.418	1070.71
580.62	1049.21
580.822	1037.58
581.024	1068.58
581.226	1093.96
581.428	1074.78
581.63	1154.22
581.832	1036.22
582.034	1157.51
582.236	1062.77
582.438	1111.79
582.64	1168.17
582.841	1146.47
583.043	1178.82
583.245	1085.05
583.447	1141.24
583.649	1118.95
583.85	1093.38
584.052	1108.3
584.254	1013.56
584.456	1117.99
584.657	1032.93
584.859	1102.1
585.061	1093.38
585.262	1069.55
585.464	1049.4
585.666	1088.54
585.867	1063.54
586.069	1121.67
586.27	1072.46
586.472	1040.87
586.674	1059.67
586.875	1044.17
587.077	1064.12
587.278	1079.82
587.48	1022.08
587.681	1165.65
587.883	1074.97
588.084	989.73
588.285	1055.99
588.487	1036.03
588.688	1041.84
588.89	952.91
589.091	975.78
589.292	955.24
589.494	943.23
589.695	944.39
589.896	877.55
590.098	856.04
590.299	947.1
590.5	913
590.702	909.51
590.903	938.19
591.104	984.11
591.305	951.56
591.507	1013.17
591.708	978.29
591.909	963.57
592.11	1048.82
592.311	998.64
592.512	964.15
592.714	950.39
592.915	943.23
593.116	922.3
593.317	969.77
593.518	954.08
593.719	942.84
593.92	984.88
594.121	1012.01
594.322	959.89
594.523	983.33
594.724	947.68
594.925	957.56
595.126	983.33
595.327	984.49
595.528	973.06
595.729	985.46
595.929	954.85
596.13	938.77
596.331	958.92
596.532	972.48
596.733	1037.77
596.934	1004.84
597.135	989.53
597.335	1006.19
597.536	953.11
597.737	959.69
597.938	942.26
598.138	983.72
598.339	959.31
598.54	998.64
598.74	975.19
598.941	918.23
599.142	1012.39
599.342	995.34
599.543	926.76
599.744	963.96
599.944	948.84
600.145	935.09
600.345	961.83
600.546	1035.45
600.746	1018.4
600.947	1014.53
601.147	986.63
601.348	1007.16
601.548	909.32
601.749	966.86
601.949	914.16
602.15	943.42
602.35	928.7
602.551	981.01
602.751	946.52
602.951	964.15
603.152	900.02
603.352	951.94
603.552	941.68
603.753	974.03
603.953	973.64
604.153	970.16
604.354	956.98
604.554	953.3
604.754	969.96
604.954	888.2
605.155	925.6
605.355	934.89
605.555	985.66
605.755	981.39
605.955	947.49
606.155	987.59
606.356	963.96
606.556	998.44
606.756	957.18
606.956	947.88
607.156	992.63
607.356	914.55
607.556	942.26
607.756	932.18
607.956	981.01
608.156	975.19
608.356	933.34
608.556	950.98
608.756	948.46
608.956	915.33
609.156	923.08
609.356	906.8
609.556	906.03
609.755	939.35
609.955	895.18
610.155	943.81
610.355	910.68
610.555	887.23
610.755	917.85
610.954	854.1
611.154	914.94
611.354	953.3
611.554	901.96
611.753	874.06
611.953	881.61
612.153	921.33
612.352	916.88
612.552	832.6
612.752	832.21
612.951	886.65
613.151	886.85
613.351	854.1
613.55	847.32
613.75	931.21
613.949	868.25
614.149	881.03
614.348	899.25
614.548	844.8
614.747	826.78
614.947	842.87
615.146	796.56
615.346	887.23
615.545	872.31
615.745	884.33
615.944	882.39
616.144	847.13
616.343	884.91
616.542	845.77
616.742	879.29
616.941	864.56
617.14	814.77
617.34	822.52
617.539	813.22
617.738	835.12
617.938	897.89
618.137	818.45
618.336	792.1
618.535	857.78
618.734	826.59
618.934	865.73
619.133	861.66
619.332	852.16
619.531	815.74
619.73	819.42
619.929	865.15
620.128	865.73
620.328	904.09
620.527	834.15
620.726	803.34
620.925	848.68
621.124	843.06
621.323	844.03
621.522	798.5
621.721	787.45
621.92	771.57
622.119	831.63
622.318	804.5
622.517	820.39
622.715	789.58
622.914	751.42
623.113	783.38
623.312	746.96
623.511	801.6
623.71	800.05
623.909	773.31
624.107	859.72
624.306	762.27
624.505	791.52
624.704	763.04
624.902	765.56
625.101	790.36
625.3	803.92
625.499	764.4
625.697	738.44
625.896	757.23
626.095	800.24
626.293	731.07
626.492	761.1
626.69	795.78
626.889	754.71
627.088	813.8
627.286	761.3
627.485	761.49
627.683	746.96
627.882	782.8
628.08	690.77
628.279	717.51
628.477	799.66
628.676	723.9
628.874	754.71
629.073	683.22
629.271	704.53
629.469	758.2
629.668	730.88
629.866	724.49
630.065	706.66
630.263	779.32
630.461	704.92
630.66	735.34
630.858	773.31
631.056	798.69
631.254	760.13
631.453	707.82
631.651	775.25
631.849	757.62
632.047	745.22
632.245	734.75
632.444	740.95
632.642	763.62
632.84	759.55
633.038	709.57
633.236	688.06
633.434	700.65
633.632	717.12
633.83	671.79
634.028	744.25
634.227	696.39
634.425	796.56
634.623	741.54
634.821	718.09
635.019	740.37
635.216	735.14
635.414	771.37
635.612	739.6
635.81	720.61
636.008	796.75
636.206	753.35
636.404	743.67
636.602	713.05
636.8	706.27
636.997	752.19
637.195	793.85
637.393	726.04
637.591	781.06
637.789	728.75
637.986	720.03
638.184	745.8
638.382	790.94
638.58	750.64
638.777	807.02
638.975	753.94
639.173	762.07
639.37	733.01
639.568	757.62
639.765	766.92
639.963	733.4
640.161	771.95
640.358	740.95
640.556	711.89
640.753	702.59
640.951	680.7
641.148	739.79
641.346	734.17
641.543	734.75
641.741	745.41
641.938	720.8
642.136	704.72
642.333	681.67
642.531	770.21
642.728	800.24
642.925	743.86
643.123	697.36
643.32	724.29
643.517	711.89
643.715	708.99
643.912	714.22
644.109	717.7
644.306	707.44
644.504	680.7
644.701	719.84
644.898	709.95
645.095	691.16
645.293	701.82
645.49	708.99
645.687	713.83
645.884	753.35
646.081	662.29
646.278	671.98
646.475	673.14
646.672	671.2
646.87	707.24
647.067	651.06
647.264	710.73
647.461	629.55
647.658	623.74
647.855	681.67
648.052	654.74
648.249	583.44
648.446	633.04
648.642	647.37
648.839	617.34
649.036	630.52
649.233	622.38
649.43	607.46
649.627	596.42
649.824	603.39
650.021	603.01
650.217	609.4
650.414	596.03
650.611	656.67
650.808	642.34
651.004	654.74
651.201	668.69
651.398	679.92
651.595	645.82
651.791	631.68
651.988	658.81
652.185	615.6
652.381	660.55
652.578	599.32
652.775	610.76
652.971	630.32
653.168	623.16
653.364	663.07
653.561	552.24
653.757	615.79
653.954	625.29
654.15	590.41
654.347	680.89
654.543	634.01
654.74	578.4
654.936	551.47
655.133	619.86
655.329	582.86
655.525	588.47
655.722	617.54
655.918	565.61
656.115	617.73
656.311	518.92
656.507	514.85
656.704	486.76
656.9	524.73
657.096	527.06
657.292	516.01
657.489	592.93
657.685	617.54
657.881	555.73
658.077	541.98
658.273	570.07
658.47	624.32
658.666	595.06
658.862	610.37
659.058	576.08
659.254	623.74
659.45	561.93
659.646	623.54
659.842	556.89
660.038	612.89
660.234	547.59
660.43	580.14
660.626	688.25
660.822	609.4
661.018	618.7
661.214	597
661.41	574.33
661.606	614.24
661.802	619.86
661.998	611.92
662.194	597.19
662.39	609.98
662.586	616.18
662.781	630.32
662.977	637.69
663.173	624.51
663.369	582.47
663.564	615.21
663.76	620.25
663.956	600.68
664.152	657.26
664.347	547.21
664.543	600.87
664.739	574.14
664.934	544.11
665.13	549.14
665.326	618.89
665.521	589.83
665.717	553.02
665.912	552.24
666.108	516.79
666.304	570.26
666.499	580.34
666.695	486.37
666.89	558.64
667.086	589.06
667.281	572.01
667.477	617.34
667.672	550.69
667.867	572.98
668.063	570.65
668.258	525.31
668.454	564.64
668.649	629.36
668.844	589.06
669.04	573.56
669.235	576.08
669.43	543.33
669.626	490.25
669.821	533.45
670.016	540.43
670.211	554.38
670.407	517.76
670.602	564.64
670.797	556.12
670.992	574.33
671.187	525.7
671.382	573.56
671.578	560.58
671.773	553.41
671.968	519.5
672.163	546.82
672.358	580.14
672.553	531.32
672.748	507.29
672.943	623.54
673.138	537.13
673.333	550.89
673.528	503.03
673.723	567.55
673.918	529.96
674.113	507.49
674.308	603.01
674.503	545.66
674.698	568.13
674.892	578.21
675.087	573.94
675.282	548.95
675.477	528.99
675.672	568.71
675.867	527.44
676.061	514.66
676.256	479.4
676.451	515.04
676.646	537.33
676.84	485.6
677.035	497.03
677.23	471.84
677.424	552.05
677.619	542.17
677.814	575.69
678.008	548.76
678.203	477.65
678.397	500.32
678.592	543.72
678.787	582.86
678.981	500.32
679.176	558.25
679.37	526.86
679.565	478.62
679.759	516.01
679.954	560.77
680.148	550.69
680.342	554.38
680.537	539.46
680.731	519.11
680.926	537.52
681.12	543.91
681.314	470.87
681.509	548.18
681.703	527.83
681.897	546.04
682.092	505.94
682.286	504.58
682.48	558.83
682.674	579.37
682.869	506.71
683.063	513.88
683.257	576.08
683.451	503.42
683.645	527.83
683.839	530.35
684.034	495.86
684.228	568.52
684.422	498.19
684.616	484.24
684.81	512.14
685.004	513.88
685.198	501.09
685.392	546.04
685.586	490.63
685.78	517.37
685.974	533.26
686.168	537.71
686.362	590.02
686.556	478.04
686.75	448.2
686.944	447.23
687.138	483.27
687.331	395.12
687.525	434.06
687.719	339.51
687.913	412.55
688.107	427.66
688.301	404.61
688.494	455.18
688.688	378.45
688.882	349.78
689.076	372.06
689.269	392.98
689.463	511.94
689.657	396.86
689.85	397.05
690.044	416.81
690.238	417.98
690.431	426.31
690.625	405
690.818	430.57
691.012	445.88
691.205	489.47
691.399	411.97
691.593	476.88
691.786	514.08
691.98	488.89
692.173	532.68
692.366	496.06
692.56	496.25
692.753	542.36
692.947	462.54
693.14	559.61
693.333	539.84
693.527	466.61
693.72	527.83
693.914	485.01
694.107	500.32
694.3	503.03
694.493	495.67
694.687	577.82
694.88	495.28
695.073	577.43
695.266	558.06
695.46	523.38
695.653	589.64
695.846	582.66
696.039	479.4
696.232	538.68
696.425	602.81
696.618	564.26
696.812	551.66
697.005	604.75
697.198	670.82
697.391	625.48
697.584	635.56
697.777	677.02
697.97	670.62
698.163	673.53
698.356	639.62
698.549	709.37
698.742	714.99
698.935	615.21
699.127	695.81
699.32	614.82
699.513	648.15
699.706	675.08
699.899	702.2
700.092	665.39
700.285	684.38
700.477	652.99
700.67	692.71
700.863	698.91
701.056	773.89
701.248	750.84
701.441	769.05
701.634	729.72
701.826	816.52
702.019	708.99
702.212	785.13
702.404	738.05
702.597	751.42
702.79	762.85
702.982	781.45
703.175	769.43
703.367	789.58
703.56	840.15
703.752	888.01
703.945	828.53
704.137	870.76
704.33	880.84
704.522	875.61
704.715	892.66
704.907	920.75
705.1	933.93
705.292	950.39
705.484	886.46
705.677	929.08
705.869	925.98
706.061	960.28
706.254	987.59
706.446	951.94
706.638	967.64
706.831	1004.84
707.023	975.78
707.215	1056.18
707.407	1030.02
707.599	1057.34
707.792	1099
707.984	1043.78
708.176	1080.01
708.368	1070.91
708.56	1087.76
708.752	1086.21
708.944	1073.04
709.136	1129.03
709.329	1119.92
709.521	1186.38
709.713	1179.6
709.905	1174.17
710.097	1215.83
710.289	1175.34
710.481	1193.35
710.672	1227.84
710.864	1231.33
711.056	1264.46
711.248	1264.85
711.44	1275.31
711.632	1263.88
711.824	1252.45
712.016	1314.83
712.207	1319.87
712.399	1268.72
712.591	1377.61
712.783	1343.9
712.975	1361.91
713.166	1321.03
713.358	1316.38
713.55	1372.76
713.741	1413.64
713.933	1399.31
714.125	1385.55
714.316	1367.34
714.508	1432.83
714.7	1432.24
714.891	1446
715.083	1478.74
715.274	1459.37
715.466	1457.82
715.657	1470.61
715.849	1408.61
716.04	1437.86
716.232	1385.94
716.423	1501.99
716.615	1416.94
716.806	1373.93
716.998	1346.8
717.189	1312.51
717.381	1233.65
717.572	1237.53
717.763	1280.15
717.955	1278.22
718.146	1239.47
718.337	1222.42
718.528	1162.55
718.72	1143.17
718.911	1191.22
719.102	1121.67
719.293	1227.65
719.485	1183.28
719.676	1194.32
719.867	1161.97
720.058	1171.27
720.249	1151.7
720.44	1204.78
720.632	1247.6
720.823	1265.04
721.014	1358.43
721.205	1367.53
721.396	1426.43
721.587	1518.07
721.778	1520.79
721.969	1555.85
722.16	1606.42
722.351	1570
722.542	1688.57
722.733	1706.59
722.924	1607.39
723.115	1674.43
723.305	1663.97
723.496	1694.77
723.687	1560.12
723.878	1624.44
724.069	1591.12
724.26	1639.75
724.45	1535.51
724.641	1543.07
724.832	1593.25
725.023	1601.97
725.213	1598.48
725.404	1568.25
725.595	1605.45
725.785	1588.6
725.976	1625.99
726.167	1618.82
726.357	1638.2
726.548	1699.42
726.739	1636.07
726.929	1724.8
727.12	1717.05
727.31	1743.4
727.501	1700.97
727.691	1705.82
727.882	1742.05
728.072	1770.72
728.263	1767.43
728.453	1813.54
728.644	1817.03
728.834	1779.25
729.024	1838.92
729.215	1798.43
729.405	1836.21
729.596	1880.19
729.786	1904.41
729.976	1902.27
730.167	1907.12
730.357	1867.01
730.547	1904.02
730.737	1972.02
730.928	1972.02
731.118	2004.57
731.308	1901.11
731.498	1953.62
731.688	2021.24
731.879	2043.13
732.069	2087.5
732.259	2114.43
732.449	2117.14
732.639	2223.9
732.829	2177.01
733.019	2240.17
733.209	2277.37
733.399	2325.61
733.589	2374.05
733.779	2359.13
733.969	2372.69
734.159	2433.92
734.349	2457.55
734.539	2513.74
734.729	2508.32
734.919	2550.55
735.109	2560.82
735.299	2527.3
735.488	2593.37
735.678	2556.75
735.868	2555.78
736.058	2576.13
736.248	2543.19
736.437	2552.88
736.627	2499.6
736.817	2638.71
737.007	2603.25
737.196	2620.69
737.386	2622.05
737.576	2598.21
737.765	2673.78
737.955	2670.1
738.144	2747.4
738.334	2686.95
738.524	2663.9
738.713	2704.58
738.903	2691.41
739.092	2753.79
739.282	2766.78
739.471	2740.62
739.661	2748.56
739.85	2768.71
740.04	2757.86
740.229	2840.79
740.419	2848.34
740.608	2871.79
740.797	2849.7
740.987	2903.17
741.176	2916.93
741.365	2872.56
741.555	2820.44
741.744	2893.68
741.933	2890.58
742.123	2871.59
742.312	2919.64
742.501	2951.8
742.69	2997.92
742.88	2897.36
743.069	2983
743.258	2963.04
743.447	3020.97
743.636	3020
743.825	3004.7
744.014	2982.03
744.204	3031.05
744.393	2995.2
744.582	3051.58
744.771	3094.01
744.96	3019.23
745.149	3055.46
745.338	3017.48
745.527	3045.19
745.716	3066.31
745.905	3055.65
746.094	3113.58
746.283	3056.81
746.471	3099.44
746.66	3130.44
746.849	3113
747.038	3172.09
747.227	3057.78
747.416	3140.9
747.604	3078.9
747.793	3129.47
747.982	3082.97
748.171	3097.31
748.359	3150.01
748.548	3102.73
748.737	3094.6
748.926	3113.97
749.114	3028.92
749.303	3132.76
749.491	3042.28
749.68	3051
749.869	3107.58
750.057	3091.88
750.246	3050.81
750.434	3136.83
750.623	3076.58
750.811	3050.81
751	3101.76
751.188	3086.85
751.377	3090.33
751.565	3091.3
751.754	3020.58
751.942	3069.6
752.131	3099.25
752.319	3039.96
752.507	2983.58
752.696	3039.76
752.884	3080.84
753.072	3057.59
753.261	3082.97
753.449	3065.15
753.637	2997.53
753.825	3100.21
754.014	3036.28
754.202	3073.09
754.39	3159.31
754.578	3102.35
754.766	3041.9
754.955	3033.56
755.143	3120.17
755.331	3003.53
755.519	3062.24
755.707	3004.12
755.895	3004.5
756.083	3026.78
756.271	2961.68
756.459	3007.6
756.647	3032.79
756.835	2982.61
757.023	3008.57
757.211	2963.04
757.399	2973.31
757.587	2977.57
757.775	2942.12
757.963	2973.31
758.151	2957.42
758.339	2916.93
758.526	2915.19
758.714	2955.87
758.902	2817.54
759.09	2773.36
759.278	2604.22
759.465	2386.06
759.653	2066.38
759.841	1911.57
760.028	1622.12
760.216	1419.07
760.404	1315.22
760.591	1102.68
760.779	907.58
760.967	803.15
761.154	674.69
761.342	706.66
761.529	702.01
761.717	757.42
761.905	726.42
762.092	804.7
762.28	710.92
762.467	738.05
762.655	663.65
762.842	698.14
763.029	739.4
763.217	721
763.404	713.44
763.592	772.73
763.779	706.47
763.966	739.4
764.154	779.7
764.341	852.55
764.528	802.76
764.716	895.18
764.903	943.03
765.09	1005.23
765.277	1043.59
765.465	1186.19
765.652	1236.37
765.839	1286.93
766.026	1427.4
766.213	1430.5
766.4	1551.4
766.588	1719.57
766.775	1745.15
766.962	1847.83
767.149	1909.25
767.336	2054.37
767.523	2006.9
767.71	2127.22
767.897	2208.01
768.084	2251.99
768.271	2294.61
768.458	2339.56
768.645	2378.89
768.832	2362.81
769.019	2431.2
769.206	2454.84
769.392	2493.4
769.579	2593.95
769.766	2528.85
769.953	2581.36
770.14	2642.39
770.327	2616.23
770.513	2644.33
770.7	2716.59
770.887	2599.57
771.073	2639.48
771.26	2680.36
771.447	2594.92
771.634	2655.95
771.82	2744.69
772.007	2618.36
772.193	2651.3
772.38	2698.77
772.567	2658.28
772.753	2659.05
772.94	2722.02
773.126	2653.24
773.313	2716.21
773.499	2691.02
773.686	2697.99
773.872	2654.21
774.059	2693.73
774.245	2600.73
774.432	2645.1
774.618	2572.25
774.804	2631.54
774.991	2586.4
775.177	2647.43
775.363	2631.93
775.55	2658.47
775.736	2585.04
775.922	2624.76
776.109	2586.59
776.295	2610.42
776.481	2632.7
776.667	2616.23
776.853	2585.23
777.04	2591.82
777.226	2543.77
777.412	2657.11
777.598	2557.72
777.784	2575.35
777.97	2537.96
778.156	2608.87
778.342	2501.54
778.528	2549
778.715	2487.39
778.901	2497.47
779.087	2544.74
779.272	2486.04
779.458	2513.16
779.644	2515.87
779.83	2520.52
780.016	2592.4
780.202	2549.39
780.388	2473.44
780.574	2444.38
780.76	2469.95
780.946	2532.53
781.131	2509.09
781.317	2485.26
781.503	2444.77
781.689	2443.02
781.874	2590.47
782.06	2450.19
782.246	2469.76
782.432	2434.69
782.617	2481.97
782.803	2502.5
782.989	2411.44
783.174	2475.57
783.36	2397.49
783.545	2433.92
783.731	2366.49
783.916	2348.09
784.102	2419.19
784.288	2379.67
784.473	2371.14
784.659	2358.94
784.844	2424.81
785.029	2336.66
785.215	2376.37
785.4	2297.52
785.586	2380.06
785.771	2292.87
785.956	2361.07
786.142	2365.91
786.327	2305.85
786.512	2316.7
786.698	2313.6
786.883	2242.11
787.068	2285.31
787.254	2314.18
787.439	2279.89
787.624	2286.09
787.809	2239.4
787.994	2206.07
788.18	2296.94
788.365	2237.26
788.55	2218.08
788.735	2240.95
788.92	2221.57
789.105	2230.29
789.29	2226.8
789.475	2144.46
789.66	2189.6
789.845	2165
790.03	2100.87
790.215	2166.16
790.4	2214.21
790.585	2205.68
790.77	2154.34
790.955	2075.87
791.14	2168.29
791.325	2228.16
791.51	2080.52
791.695	2126.44
791.879	2115.2
792.064	2105.71
792.249	2204.71
792.434	2158.02
792.618	2143.1
792.803	2169.26
792.988	2118.5
793.173	2148.33
793.357	2182.05
793.542	2126.83
793.727	2174.49
793.911	2122.37
794.096	2120.82
794.281	2165
794.465	2249.28
794.65	2137.87
794.834	2197.93
795.019	2216.73
795.203	2199.1
795.388	2195.61
795.572	2229.9
795.757	2167.51
795.941	2189.8
796.126	2162.48
796.31	2102.8
796.494	2178.17
796.679	2152.6
796.863	2134.77
797.048	2201.61
797.232	2164.22
797.416	2208.98
797.601	2141.36
797.785	2190.57
797.969	2200.45
798.153	2123.53
798.338	2199.1
798.522	2187.47
798.706	2217.5
798.89	2208.2
799.074	2273.3
799.258	2238.81
799.443	2187.66
799.627	2195.03
799.811	2226.22
799.995	2191.54
800.179	2148.53
800.363	2182.24
800.547	2179.91
800.731	2226.22
800.915	2139.42
801.099	2134.38
801.283	2175.65
801.467	2141.36
801.651	2137.87
801.835	2193.09
802.019	2195.8
802.202	2214.01
802.386	2123.73
802.57	2116.56
802.754	2174.3
802.938	2115.78
803.121	2110.75
803.305	2199.68
803.489	2152.79
803.673	2183.79
803.856	2142.91
804.04	2152.4
804.224	2133.03
804.407	2121.6
804.591	2138.07
804.775	2147.56
804.958	2155.31
805.142	2260.32
805.326	2127.8
805.509	2186.5
805.693	2205.88
805.876	2198.51
806.06	2142.13
806.243	2213.05
806.427	2193.48
806.61	2214.21
806.794	2177.01
806.977	2195.61
807.16	2196.58
807.344	2172.75
807.527	2144.46
807.71	2187.47
807.894	2197.55
808.077	2210.14
808.26	2131.09
808.444	2107.84
808.627	2206.26
808.81	2132.45
808.993	2079.94
809.177	2096.8
809.36	2115.98
809.543	2133.61
809.726	2042.55
809.909	2053.01
810.092	2043.32
810.276	2034.41
810.459	2023.37
810.642	2012.52
810.825	1951.29
811.008	2014.65
811.191	1928.62
811.374	1921.84
811.557	1950.13
811.74	2010.39
811.923	1885.03
812.106	1914.29
812.289	1857.71
812.472	1891.04
812.654	1915.26
812.837	1860.04
813.02	1813.34
813.203	1762
813.386	1686.44
813.569	1720.93
813.751	1631.22
813.934	1692.25
814.117	1653.31
814.3	1599.06
814.482	1577.55
814.665	1562.83
814.848	1525.24
815.03	1493.47
815.213	1465.96
815.396	1451.43
815.578	1484.17
815.761	1407.64
815.943	1486.3
816.126	1368.31
816.309	1354.55
816.491	1328.4
816.674	1264.85
816.856	1331.69
817.039	1269.88
817.221	1398.53
817.403	1353
817.586	1366.76
817.768	1376.44
817.951	1284.03
818.133	1274.92
818.315	1329.75
818.498	1333.63
818.68	1394.66
818.862	1363.27
819.045	1345.25
819.227	1370.44
819.409	1335.76
819.591	1387.1
819.774	1342.73
819.956	1325.1
820.138	1393.3
820.32	1399.5
820.502	1424.88
820.684	1500.25
820.866	1496.37
821.048	1528.92
821.231	1556.44
821.413	1547.52
821.595	1508.39
821.777	1559.92
821.959	1532.41
822.141	1556.05
822.323	1411.32
822.505	1415.39
822.686	1339.05
822.868	1328.01
823.05	1215.83
823.232	1203.23
823.414	1148.79
823.596	1234.43
823.778	1163.71
823.96	1210.6
824.141	1207.3
824.323	1234.23
824.505	1291.58
824.687	1381.68
824.868	1375.86
825.05	1458.98
825.232	1491.34
825.413	1552.17
825.595	1498.7
825.777	1416.16
825.958	1490.56
826.14	1483.2
826.321	1487.27
826.503	1469.25
826.685	1505.67
826.866	1544.42
827.048	1504.9
827.229	1462.47
827.411	1428.76
827.592	1394.85
827.773	1410.74
827.955	1359.78
828.136	1336.73
828.318	1323.94
828.499	1385.55
828.68	1323.55
828.862	1350.48
829.043	1371.21
829.224	1312.31
829.406	1318.9
829.587	1317.55
829.768	1315.8
829.949	1321.61
830.131	1333.24
830.312	1411.32
830.493	1324.71
830.674	1390.59
830.855	1335.37
831.036	1300.3
831.218	1389.23
831.399	1415.97
831.58	1353.39
831.761	1343.51
831.942	1353.39
832.123	1348.35
832.304	1297.98
832.485	1340.41
832.666	1328.59
832.847	1389.23
833.028	1376.25
833.209	1360.36
833.389	1322.58
833.57	1284.22
833.751	1320.45
833.932	1356.88
834.113	1347.77
834.294	1318.32
834.475	1346.03
834.655	1385.94
834.836	1395.24
835.017	1373.93
835.198	1346.22
835.378	1390.98
835.559	1396.79
835.74	1362.3
835.92	1357.46
836.101	1316.96
836.281	1372.96
836.462	1391.94
836.643	1425.46
836.823	1403.96
837.004	1384.58
837.184	1446.39
837.365	1426.24
837.545	1396.98
837.726	1415.78
837.906	1465.57
838.087	1417.71
838.267	1384.97
838.448	1353.39
838.628	1379.54
838.808	1406.67
838.989	1446.39
839.169	1364.82
839.349	1432.05
839.53	1426.24
839.71	1421.39
839.89	1371.02
840.07	1432.44
840.251	1392.72
840.431	1462.27
840.611	1389.04
840.791	1358.43
840.971	1406.86
841.151	1372.76
841.332	1381.48
841.512	1409.58
841.692	1325.88
841.872	1408.61
842.052	1373.34
842.232	1405.89
842.412	1344.28
842.592	1354.75
842.772	1355.33
842.952	1391.75
843.132	1369.28
843.312	1363.27
843.492	1353.39
843.672	1404.93
843.851	1312.12
844.031	1342.15
844.211	1356.1
844.391	1359.4
844.571	1386.71
844.751	1378.38
844.93	1360.75
845.11	1336.34
845.29	1354.36
845.47	1349.51
845.649	1360.75
845.829	1375.48
846.009	1338.08
846.188	1334.98
846.368	1349.9
846.547	1332.08
846.727	1383.03
846.907	1303.98
847.086	1378.38
847.266	1391.94
847.445	1356.88
847.625	1328.98
847.804	1296.43
847.984	1331.3
848.163	1322
848.343	1293.33
848.522	1297.98
848.701	1328.01
848.881	1287.71
849.06	1327.43
849.239	1322.39
849.419	1339.44
849.598	1268.14
849.777	1259.03
849.957	1235.01
850.136	1200.52
850.315	1185.22
850.494	1204.01
850.674	1226.29
850.853	1244.7
851.032	1241.21
851.211	1279.77
851.39	1269.88
851.569	1183.86
851.748	1196.65
851.927	1283.64
852.107	1224.74
852.286	1167
852.465	1201.88
852.644	1246.25
852.823	1246.63
853.002	1213.5
853.181	1227.65
853.359	1209.43
853.538	1162.74
853.717	1257.1
853.896	1127.29
854.075	1139.3
854.254	1070.32
854.433	1012.01
854.611	1074.59
854.79	1032.74
854.969	1098.03
855.148	1120.5
855.327	1058.51
855.505	1098.42
855.684	1104.42
855.863	1129.61
856.041	1061.41
856.22	1090.47
856.399	1101.52
856.577	1202.85
856.756	1162.55
856.934	1254.97
857.113	1268.53
857.291	1159.25
857.47	1154.99
857.648	1179.79
857.827	1215.05
858.005	1222.22
858.184	1145.3
858.362	1238.5
858.541	1153.83
858.719	1170.88
858.898	1147.24
859.076	1116.44
859.254	1218.73
859.433	1173.98
859.611	1124.96
859.789	1107.91
859.967	1188.9
860.146	1211.57
860.324	1136.59
860.502	1123.99
860.68	1107.33
860.859	1125.15
861.037	1145.11
861.215	1166.81
861.393	1120.89
861.571	1118.18
861.749	1123.22
861.927	1155.57
862.105	1136
862.283	1108.69
862.461	1082.72
862.639	1079.04
862.817	1114.5
862.995	1124.96
863.173	1136.59
863.351	1090.67
863.529	1123.6
863.707	1139.88
863.885	1128.84
864.063	1043.97
864.241	1051.53
864.418	1142.01
864.596	1060.83
864.774	1033.51
864.952	1045.91
865.129	1095.51
865.307	1043.39
865.485	1018.79
865.663	1095.51
865.84	1012.98
866.018	1025.18
866.196	908.35
866.373	955.43
866.551	944.58
866.728	891.88
866.906	905.83
867.084	947.88
867.261	977.33
867.439	966.48
867.616	1017.63
867.794	976.55
867.971	981.59
868.149	1017.04
868.326	1068.19
868.503	1055.99
868.681	1011.43
868.858	988.76
869.035	973.84
869.213	1018.4
869.39	976.36
869.567	1086.79
869.745	979.26
869.922	985.08
870.099	1020.92
870.276	1056.37
870.454	1030.22
870.631	991.66
870.808	998.06
870.985	1037.77
871.162	1043.59
871.339	1020.72
871.517	936.83
871.694	955.43
871.871	993.79
872.048	947.1
872.225	975
872.402	986.82
872.579	937.8
872.756	999.99
872.933	923.66
873.11	976.36
873.287	961.24
873.463	941.29
873.64	913.58
873.817	980.04
873.994	962.41
874.171	949.62
874.348	959.5
874.524	935.48
874.701	949.81
874.878	905.64
875.055	944.58
875.231	926.95
875.408	958.34
875.585	890.14
875.762	931.21
875.938	917.26
876.115	914.55
876.291	882.97
876.468	903.9
876.645	858.36
876.821	881.03
876.998	888.59
877.174	929.86
877.351	913
877.527	862.82
877.704	900.6
877.88	930.05
878.057	882.97
878.233	923.27
878.409	871.15
878.586	895.56
878.762	877.93
878.938	881.23
879.115	824.46
879.291	857.01
879.467	820.39
879.644	839.57
879.82	907.38
879.996	860.88
880.172	812.25
880.349	863.79
880.525	876.38
880.701	817.1
880.877	807.99
881.053	867.66
881.229	832.02
881.405	875.8
881.581	820.39
881.757	869.41
881.933	881.03
882.109	876.19
882.285	862.82
882.461	781.64
882.637	839.18
882.813	812.83
882.989	842.48
883.165	871.73
883.341	822.13
883.517	885.3
883.693	867.47
883.869	881.61
884.044	823.88
884.22	855.26
884.396	909.32
884.572	845.19
884.747	869.02
884.923	847.51
885.099	868.05
885.275	923.66
885.45	795.01
885.626	828.92
885.801	811.09
885.977	832.98
886.153	786.1
886.328	845.96
886.504	800.24
886.679	826.78
886.855	806.63
887.03	832.98
887.206	884.52
887.381	854.1
887.557	856.23
887.732	847.51
887.908	834.73
888.083	847.51
888.258	808.38
888.434	819.42
888.609	841.32
888.784	862.63
888.96	821.75
889.135	821.75
889.31	802.18
889.485	838.8
889.661	819.62
889.836	865.15
890.011	873.86
890.186	802.76
890.361	812.64
890.537	833.76
890.712	818.45
890.887	838.99
891.062	857.01
891.237	878.13
891.412	782.61
891.587	834.73
891.762	867.86
891.937	858.75
892.112	780.67
892.287	807.22
892.462	764.01
892.637	743.86
892.812	771.76
892.987	752.19
893.161	774.08
893.336	776.41
893.511	767.69
893.686	762.27
893.861	746.38
894.035	755.29
894.21	773.5
894.385	718.87
894.56	761.88
894.734	700.07
894.909	692.71
895.084	694.26
895.258	687.09
895.433	680.5
895.608	675.08
895.782	605.72
895.957	648.34
896.131	665.39
896.306	588.67
896.48	598.94
896.655	615.41
896.829	537.13
897.004	525.7
897.178	528.41
897.353	526.86
897.527	582.47
897.701	572.39
897.876	501.68
898.05	598.55
898.224	601.26
898.399	612.5
898.573	574.72
898.747	439.48
898.921	531.32
899.096	445.68
899.27	459.25
899.444	476.3
899.618	477.65
899.792	498.19
899.967	483.46
900.141	523.76
900.315	451.5
900.489	468.35
900.663	490.83
900.837	484.63
901.011	435.22
901.185	546.43
901.359	462.35
901.533	484.82
901.707	489.66
901.881	492.96
902.055	430.18
902.229	481.53
902.403	521.63
902.576	476.3
902.75	485.21
902.924	592.74
903.098	526.86
903.272	600.87
903.446	585.96
903.619	549.14
903.793	619.67
903.967	603.97
904.14	623.54
904.314	635.36
904.488	610.56
904.661	625.48
904.835	606.88
905.009	641.37
905.182	675.47
905.356	623.35
905.529	620.06
905.703	592.35
905.876	584.21
906.05	589.25
906.223	563.29
906.397	499.35
906.57	513.11
906.744	467.77
906.917	469.32
907.09	503.81
907.264	502.26
907.437	450.72
907.61	427.08
907.784	459.63
907.957	465.64
908.13	395.7
908.304	490.44
908.477	409.84
908.65	440.65
908.823	405
908.996	500.9
909.17	411.2
909.343	426.11
909.516	439.87
909.689	449.75
909.862	406.16
910.035	428.44
910.208	371.09
910.381	410.42
910.554	498.38
910.727	437.16
910.9	420.69
911.073	401.32
911.246	467.19
911.419	491.99
911.592	462.54
911.765	403.83
911.938	412.94
912.11	430.96
912.283	421.08
912.456	453.24
912.629	439.87
912.802	396.67
912.974	370.7
913.147	361.21
913.32	315.49
913.493	322.46
913.665	368.18
913.838	360.43
914.01	352.88
914.183	380
914.356	341.06
914.528	395.31
914.701	450.72
914.873	425.15
915.046	373.22
915.218	354.82
915.391	307.54
915.563	322.07
915.736	373.03
915.908	384.46
916.081	337.18
916.253	347.07
916.425	383.88
916.598	392.02
916.77	365.67
916.942	336.6
917.115	279.84
917.287	333.7
917.459	346.29
917.632	321.49
917.804	257.36
917.976	340.67
918.148	340.09
918.32	354.23
918.493	408.1
918.665	398.99
918.837	351.33
919.009	426.31
919.181	411.58
919.353	391.24
919.525	376.13
919.697	387.95
919.869	378.07
920.041	420.69
920.213	472.03
920.385	429.41
920.557	397.83
920.729	412.16
920.901	401.51
921.073	401.9
921.244	372.25
921.416	419.72
921.588	390.47
921.76	345.71
921.932	423.4
922.103	406.74
922.275	386.2
922.447	390.85
922.619	330.6
922.79	384.27
922.962	358.5
923.134	386.59
923.305	332.92
923.477	321.1
923.648	319.17
923.82	349.78
923.991	299.79
924.163	310.06
924.335	350.94
924.506	333.7
924.677	390.85
924.849	321.68
925.02	334.67
925.192	371.87
925.363	344.93
925.535	325.95
925.706	312
925.877	362.18
926.049	340.67
926.22	349
926.391	358.88
926.562	369.54
926.734	306.57
926.905	359.66
927.076	291.85
927.247	281.77
927.419	275.77
927.59	267.05
927.761	256
927.932	261.62
928.103	289.72
928.274	224.04
928.445	233.72
928.616	251.16
928.787	212.41
928.958	287
929.129	246.32
929.3	215.9
929.471	200.79
929.642	139.18
929.813	116.51
929.984	204.27
930.155	142.66
930.326	210.09
930.496	155.06
930.667	101.01
930.838	142.28
931.009	96.36
931.18	151.19
931.35	107.59
931.521	126
931.692	74.46
931.863	50.83
932.033	98.88
932.204	116.89
932.374	122.9
932.545	54.9
932.716	105.85
932.886	101.98
933.057	18.47
933.227	49.66
933.398	129.88
933.568	58.58
933.739	34.36
933.909	36.3
934.08	89.19
934.25	17.31
934.421	11.69
934.591	60.71
934.761	38.04
934.932	5.88
935.102	22.15
935.272	19.44
935.443	9.95
935.613	31.45
935.783	30.48
935.953	19.05
936.123	159.13
936.294	3.16
936.464	22.15
936.634	32.42
936.804	11.11
936.974	-5.94
937.144	63.03
937.314	46.95
937.484	38.81
937.655	0.45
937.825	69.23
937.995	-10.2
938.165	62.84
938.334	30.68
938.504	63.61
938.674	44.43
938.844	51.6
939.014	98.29
939.184	84.93
939.354	121.16
939.524	93.45
939.694	74.85
939.863	43.46
940.033	147.7
940.203	132.01
940.373	120.38
940.542	119.8
940.712	68.26
940.882	137.82
941.051	122.9
941.221	85.31
941.391	131.04
941.56	80.28
941.73	52.76
941.899	177.34
942.069	80.28
942.238	78.34
942.408	70.98
942.577	95.19
942.747	64.39
942.916	26.03
943.086	62.45
943.255	120.58
943.425	81.63
943.594	67.49
943.763	24.67
943.933	34.94
944.102	-20.09
944.271	35.91
944.441	85.7
944.61	39.4
944.779	51.8
944.948	138.59
945.117	25.25
945.287	44.05
945.456	8.78
945.625	37.26
945.794	66.91
945.963	44.82
946.132	77.95
946.301	42.69
946.47	114.18
946.639	21.18
946.808	47.73
946.977	64.58
947.146	105.85
947.315	45.98
947.484	86.86
947.653	64
947.822	28.16
947.991	6.07
948.16	127.74
948.329	70.98
948.498	28.16
948.666	82.21
948.835	75.24
949.004	35.13
949.173	39.78
949.341	66.91
949.51	57.61
949.679	105.66
949.847	92.09
950.016	146.54
950.185	95.97
950.353	14.01
950.522	60.71
950.69	108.37
950.859	28.74
951.028	99.26
951.196	62.84
951.365	41.72
951.533	21.57
951.701	103.91
951.87	82.21
952.038	48.5
952.207	55.28
952.375	113.99
952.543	59.16
952.712	27
952.88	38.81
953.048	126.39
953.217	63.81
953.385	70.39
953.553	113.41
953.721	9.75
953.89	52.57
954.058	33.39
954.226	38.43
954.394	52.96
954.562	31.65
954.73	65.94
954.898	41.91
955.067	82.6
955.235	41.14
955.403	102.17
955.571	109.34
955.739	72.91
955.907	39.59
956.075	27.38
956.243	55.48
956.41	90.54
956.578	14.21
956.746	5.88
956.914	45.98
957.082	106.24
957.25	88.8
957.418	26.8
957.585	46.76
957.753	123.29
957.921	26.22
958.089	49.86
958.256	106.24
958.424	82.02
958.592	82.6
958.759	36.49
958.927	65.74
959.095	34.16
959.262	67.68
959.43	85.89
959.597	38.81
959.765	53.15
959.932	18.86
960.1	97.71
960.267	57.61
960.435	71.56
960.602	79.31
960.77	47.34
960.937	29.71
961.104	89.96
961.272	27.58
961.439	38.23
961.606	90.74
961.774	106.04
961.941	54.9
962.108	66.13
962.275	77.18
962.443	121.16
962.61	74.66
962.777	121.93
962.944	112.83
963.111	94.42
963.278	90.93
963.446	96.94
963.613	63.42
963.78	97.91
963.947	89.96
964.114	111.86
964.281	158.55
964.448	61.68
964.615	61.48
964.782	63.23
964.949	104.88
965.116	103.33
965.282	108.76
965.449	54.31
965.616	56.45
965.783	80.28
965.95	93.84
966.117	46.37
966.283	72.72
966.45	88.03
966.617	55.86
966.784	126.19
966.95	113.79
967.117	114.18
967.284	56.83
967.45	66.91
967.617	124.26
967.784	97.52
967.95	118.64
968.117	78.92
968.283	113.02
968.45	163.01
968.616	141.11
968.783	113.41
968.949	103.14
969.116	106.24
969.282	83.57
969.449	102.75
969.615	76.21
969.781	45.21
969.948	75.63
970.114	52.96
970.28	146.15
970.447	92.09
970.613	126
970.779	77.56
970.945	124.64
971.112	90.93
971.278	88.22
971.444	106.04
971.61	124.06
971.776	80.86
971.942	119.22
972.108	117.09
972.275	89.58
972.441	92.48
972.607	178.7
972.773	66.13
972.939	97.13
973.105	78.92
973.271	46.18
973.437	90.16
973.602	53.73
973.768	113.02
973.934	69.04
974.1	96.94
974.266	24.86
974.432	106.82
974.598	73.88
974.763	95.78
974.929	69.04
975.095	133.17
975.261	74.46
975.426	47.53
975.592	67.68
975.758	150.22
975.923	34.94
976.089	52.96
976.255	89.38
976.42	101.2
976.586	118.83
976.751	85.31
976.917	177.54
977.082	99.07
977.248	18.86
977.413	15.18
977.579	60.13
977.744	71.36
977.91	45.01
978.075	71.75
978.24	93.06
978.406	60.71
978.571	59.74
978.736	59.16
978.902	98.68
979.067	54.31
979.232	18.47
979.397	100.04
979.563	139.56
979.728	38.62
979.893	56.83
980.058	76.59
980.223	107.59
980.388	84.93
980.554	57.61
980.719	61.87
980.884	86.86
981.049	132.78
981.214	65.94
981.379	87.25
981.544	73.11
981.709	77.76
981.874	80.86
982.039	74.85
982.204	102.56
982.368	100.43
982.533	41.72
982.698	117.67
982.863	113.02
983.028	31.45
983.193	95.19
983.357	82.79
983.522	103.14
983.687	49.28
983.852	69.62
984.016	86.09
984.181	71.17
984.346	95.19
984.51	94.81
984.675	84.34
984.839	104.69
985.004	78.53
985.168	135.11
985.333	110.89
985.498	69.81
985.662	95.78
985.827	88.22
985.991	55.48
986.155	70.59
986.32	95.58
986.484	122.13
986.649	95.78
986.813	31.65
986.977	93.64
987.142	101.01
987.306	64
987.47	60.71
987.634	85.51
987.799	84.93
987.963	76.21
988.127	79.11
988.291	150.22
988.455	86.86
988.62	87.44
988.784	107.21
988.948	101.01
989.112	76.79
989.276	85.7
989.44	91.13
989.604	47.53
989.768	62.64
989.932	157.19
990.096	35.13
990.26	47.15
990.424	30.48
990.588	88.41
990.752	139.95
990.915	114.38
991.079	70.78
991.243	49.47
991.407	100.62
991.571	88.99
991.734	73.69
991.898	100.81
992.062	152.35
992.226	89.19
992.389	36.3
992.553	13.24
992.717	32.23
992.88	44.63
993.044	81.44
993.207	64
993.371	99.65
993.535	79.89
993.698	68.84
993.862	100.62
994.025	99.84
994.189	91.51
994.352	57.41
994.515	69.04
994.679	99.26
994.842	95
995.006	110.11
995.169	41.33
995.332	71.75
995.496	93.06
995.659	7.04
995.822	70.01
995.985	70.98
996.149	108.76
996.312	61.09
996.475	123.68
996.638	44.82
996.801	123.09
996.964	124.64
997.128	27.38
997.291	55.09
997.454	73.3
997.617	21.76
997.78	117.48
997.943	60.13
998.106	63.61
998.269	55.28
998.432	56.06
998.595	80.47
998.758	3.94
998.92	21.18
999.083	1.03
999.246	47.73
999.409	3.16
999.572	-23.77
999.735	52.76
999.897	68.46
1000.06	47.92
1000.223	51.8
1000.386	82.79
1000.548	52.76
1000.711	92.09
1000.874	40.36
1001.036	28.74
1001.199	91.9
1001.361	35.13
1001.524	68.84
1001.687	82.41
1001.849	38.04
1002.012	73.69
1002.174	64.78
1002.337	79.5
1002.499	34.36
1002.661	70.78
1002.824	24.67
1002.986	33.78
1003.149	64.58
1003.311	27
1003.473	116.31
1003.636	39.4
1003.798	89.58
1003.96	73.88
1004.123	41.53
1004.285	48.7
1004.447	62.45
1004.609	43.27
1004.771	89.58
1004.933	-15.05
1005.096	24.86
1005.258	-9.24
1005.42	29.9
1005.582	101.98
1005.744	62.06
1005.906	-0.9
1006.068	48.5
1006.23	7.43
1006.392	-10.4
1006.554	15.56
1006.716	87.06
1006.878	60.32
1007.04	6.46
1007.202	11.11
1007.363	23.7
1007.525	53.15
1007.687	66.33
1007.849	59.35
1008.011	-12.72
1008.172	10.14
1008.334	41.14
1008.496	54.9
1008.658	-23.19
1008.819	23.9
1008.981	10.72
1009.143	18.86
1009.304	34.36
1009.466	38.43
1009.627	75.43
1009.789	138.59
1009.95	28.35
1010.112	30.1
1010.273	62.84
1010.435	23.31
1010.596	3.55
1010.758	40.56
1010.919	2.39
1011.081	6.65
1011.242	45.01
1011.403	36.3
1011.565	20.02
1011.726	45.6
1011.887	0.26
1012.049	15.18
1012.21	60.32
1012.371	93.84
1012.532	-29.19
1012.693	62.84
1012.855	31.26
1013.016	52.76
1013.177	55.67
1013.338	15.37
1013.499	70.01
1013.66	70.39
1013.821	63.61
1013.982	22.73
1014.143	20.99
1014.304	19.83
1014.465	39.4
1014.626	80.47
1014.787	30.29
1014.948	103.91
1015.109	-46.05
1015.27	71.75
1015.431	26.22
1015.592	21.76
1015.752	92.48
1015.913	36.1
1016.074	53.54
1016.235	41.53
1016.395	39.2
1016.556	33.78
1016.717	24.86
1016.877	74.66
1017.038	-14.27
1017.199	30.87
1017.359	47.34
1017.52	15.37
1017.681	25.25
1017.841	24.67
1018.002	6.85
1018.162	9.75
1018.323	90.16
1018.483	22.54
1018.644	9.75
1018.804	-11.75
1018.964	7.43
1019.125	14.6
1019.285	51.21
1019.446	-16.6
1019.606	-0.9
1019.766	-30.55
1019.926	41.33
1020.087	34.75
1020.247	-31.9
1020.407	66.71
1020.567	40.95
1020.728	14.4
1020.888	-26.67
1021.048	6.26
1021.208	-7.69
1021.368	5.1
1021.528	58
1021.688	71.94
1021.848	47.15
1022.008	25.64
1022.168	4.13
1022.328	43.27
1022.488	35.52
1022.648	4.33
1022.808	12.46
1022.968	43.66
1023.128	9.95
1023.288	13.05
1023.448	10.53
1023.608	63.81
1023.767	33
1023.927	-17.37
1024.087	14.98
1024.247	1.61
1024.406	20.02
1024.566	-23.96
1024.726	-1.29
1024.885	25.06
1025.045	59.35
1025.205	5.1
1025.364	8.2
1025.524	24.09
1025.683	24.67
1025.843	22.73
1026.003	5.1
1026.162	71.75
1026.321	62.06
1026.481	35.52
1026.64	-10.79
1026.8	29.13
1026.959	24.86
1027.119	23.9
1027.278	2
1027.437	-3.23
1027.597	21.18
1027.756	39.78
1027.915	9.36
1028.074	17.11
1028.234	-28.61
1028.393	39.4
1028.552	-0.9
1028.711	-20.47
1028.87	73.3
1029.03	-29.58
1029.189	19.83
1029.348	-42.17
1029.507	-0.13
1029.666	-6.52
1029.825	-32.48
1029.984	-7.69
1030.143	20.8
1030.302	4.91
1030.461	-29.77
1030.62	37.26
1030.779	44.43
1030.938	-0.71
1031.097	-35.39
1031.255	48.89
1031.414	46.56
1031.573	60.9
1031.732	-22.41
1031.891	-17.76
1032.049	51.99
1032.208	20.41
1032.367	-9.24
1032.525	16.92
1032.684	20.41
1032.843	-11.37
1033.001	-47.4
1033.16	148.28
1033.319	55.67
1033.477	50.05
1033.636	15.18
1033.794	-15.82
1033.953	40.17
1034.111	24.48
1034.27	0.26
1034.428	9.17
1034.587	-26.67
1034.745	22.93
1034.903	29.71
1035.062	56.25
1035.22	-43.92
1035.378	39.4
1035.537	-28.42
1035.695	29.51
1035.853	13.43
1036.011	74.46
1036.17	28.55
1036.328	-49.15
1036.486	48.7
1036.644	21.96
1036.802	-79.57
1036.96	-31.32
1037.119	-5.36
1037.277	-0.32
1037.435	-35.2
1037.593	-10.98
1037.751	15.95
1037.909	63.03
1038.067	63.03
