Data from oakcork_FLMT105791__183__17-31-56-057.txt Node

Date: Mon Mar 20 17:31:56 GMT 2023
User: antho
Spectrometer: FLMT10579
Trigger mode: 0
Integration Time (sec): 1.000000E-1
Scans to average: 10
Electric dark correction enabled: true
Nonlinearity correction enabled: false
Boxcar width: 0
XAxis mode: Wavelengths
Number of Pixels in Spectrum: 3648
>>>>>Begin Spectral Data<<<<<
345.248	-167.19
345.464	-167.19
345.681	-167.19
345.898	-167.77
346.114	-140.06
346.331	-26.14
346.548	29.66
346.764	-9.67
346.981	0.6
347.197	-14.13
347.414	8.35
347.631	-30.21
347.847	54.07
348.064	-17.61
348.28	34.5
348.497	-34.86
348.713	5.44
348.93	20.17
349.146	40.51
349.363	-2.7
349.579	1.76
349.796	-21.88
350.012	-5.8
350.229	25.78
350.445	23.07
350.661	-10.83
350.878	-9.67
351.094	5.83
351.311	0.21
351.527	47.48
351.743	5.44
351.96	29.47
352.176	46.32
352.392	17.65
352.609	29.85
352.825	-11.22
353.041	-5.8
353.257	-16.06
353.474	0.6
353.69	32.18
353.906	18.81
354.122	-18.97
354.339	42.06
354.555	-23.62
354.771	-20.91
354.987	54.65
355.203	40.32
355.42	-18.97
355.636	-24.98
355.852	-6.38
356.068	21.52
356.284	-27.3
356.5	45.35
356.716	2.15
356.932	-17.81
357.148	19.2
357.364	-21.3
357.58	45.93
357.796	62.6
358.012	38.57
358.228	14.55
358.444	-46.87
358.66	59.69
358.876	40.12
359.092	-34.28
359.308	16.87
359.524	28.3
359.74	-4.44
359.956	-28.27
360.172	8.15
360.388	56.4
360.604	-0.57
360.819	66.86
361.035	13.58
361.251	28.5
361.467	12.8
361.683	35.08
361.898	16.48
362.114	57.17
362.33	-2.5
362.546	37.22
362.762	2.53
362.977	10.48
363.193	-29.24
363.409	38.57
363.624	0.02
363.84	7.96
364.056	-13.74
364.271	33.53
364.487	34.12
364.703	-5.99
364.918	-8.12
365.134	0.79
365.35	11.83
365.565	80.42
365.781	25.01
365.996	29.08
366.212	34.7
366.427	12.22
366.643	-16.26
366.858	-2.89
367.074	-12.38
367.289	52.52
367.505	82.55
367.72	-29.24
367.936	-13.74
368.151	37.22
368.367	40.32
368.582	6.6
368.798	-17.03
369.013	54.07
369.228	-8.31
369.444	21.72
369.659	98.63
369.874	26.37
370.09	72.09
370.305	-38.15
370.52	9.9
370.736	56.78
370.951	11.25
371.166	51.17
371.381	60.85
371.597	56.59
371.812	-22.26
372.027	-16.84
372.242	7.18
372.458	38.57
372.673	4.28
372.888	24.04
373.103	28.5
373.318	93.98
373.533	12.03
373.749	31.6
373.964	-37.38
374.179	48.45
374.394	-2.31
374.609	72.67
374.824	-9.67
375.039	51.17
375.254	-12.19
375.469	63.37
375.684	17.26
375.899	30.82
376.114	-7.93
376.329	36.83
376.544	67.63
376.759	39.35
376.974	-13.35
377.189	7.77
377.404	3.7
377.619	38.96
377.834	-43.38
378.049	-53.26
378.264	-30.98
378.478	36.83
378.693	5.44
378.908	44.58
379.123	7.57
379.338	54.27
379.553	34.89
379.767	38.77
379.982	43.42
380.197	56.01
380.412	11.83
380.626	41.09
380.841	123.24
381.056	40.51
381.271	84.49
381.485	-5.8
381.7	-11.8
381.915	31.98
382.129	10.87
382.344	12.42
382.559	24.82
382.773	33.73
382.988	-20.71
383.202	43.03
383.417	1.76
383.632	91.46
383.846	13.77
384.061	29.47
384.275	34.5
384.49	45.16
384.704	33.73
384.919	8.73
385.133	25.4
385.348	55.43
385.562	2.53
385.777	64.73
385.991	44.58
386.206	21.33
386.42	28.3
386.634	52.13
386.849	18.23
387.063	37.8
387.277	-2.89
387.492	10.48
387.706	15.32
387.92	-8.51
388.135	45.55
388.349	37.8
388.563	29.27
388.778	35.86
388.992	51.94
389.206	30.63
389.42	83.71
389.635	21.13
389.849	54.65
390.063	43.03
390.277	37.99
390.491	78.48
390.706	33.73
390.92	59.88
391.134	24.82
391.348	45.93
391.562	0.79
391.776	18.81
391.99	-6.57
392.205	52.72
392.419	4.67
392.633	23.85
392.847	42.83
393.061	13.58
393.275	80.03
393.489	57.75
393.703	32.76
393.917	57.17
394.131	41.28
394.345	48.65
394.559	53.1
394.773	19.78
394.986	36.25
395.2	29.27
395.414	60.47
395.628	15.32
395.842	37.8
396.056	25.4
396.27	-21.49
396.484	23.07
396.697	50.97
396.911	76.35
397.125	25.78
397.339	83.13
397.553	51.75
397.766	109.68
397.98	68.6
398.194	58.72
398.408	26.56
398.621	63.57
398.835	38.57
399.049	47.29
399.262	97.47
399.476	53.68
399.69	56.59
399.903	102.51
400.117	24.04
400.331	54.65
400.544	11.25
400.758	128.47
400.971	63.18
401.185	71.32
401.398	31.4
401.612	59.88
401.826	66.67
402.039	80.23
402.253	35.86
402.466	97.08
402.68	39.73
402.893	42.25
403.106	13
403.32	60.08
403.533	87.98
403.747	49.81
403.96	57.95
404.174	66.67
404.387	14.74
404.6	57.37
404.814	75.77
405.027	28.3
405.24	48.65
405.454	58.33
405.667	88.36
405.88	5.83
406.094	42.06
406.307	92.82
406.52	72.48
406.733	20.94
406.947	18.23
407.16	107.16
407.373	91.27
407.586	25.01
407.799	34.5
408.012	59.5
408.226	53.1
408.439	91.08
408.652	32.76
408.865	60.08
409.078	73.45
409.291	69.96
409.504	42.06
409.717	88.75
409.93	61.05
410.143	49.62
410.357	29.08
410.57	30.43
410.783	45.35
410.996	63.37
411.209	51.17
411.421	83.13
411.634	42.06
411.847	35.08
412.06	65.31
412.273	36.63
412.486	56.78
412.699	120.91
412.912	46.71
413.125	66.28
413.338	51.17
413.55	74.03
413.763	71.12
413.976	85.65
414.189	57.95
414.402	46.32
414.615	84.1
414.827	26.95
415.04	70.93
415.253	68.22
415.466	97.66
415.678	116.85
415.891	52.13
416.104	71.51
416.316	71.7
416.529	46.32
416.742	85.65
416.954	95.73
417.167	49.62
417.38	30.43
417.592	104.64
417.805	53.3
418.017	20.94
418.23	75.77
418.442	49.03
418.655	63.95
418.868	65.7
419.08	94.18
419.293	105.03
419.505	84.1
419.718	71.9
419.93	111.61
420.142	53.3
420.355	76.93
420.567	123.05
420.78	108.32
420.992	64.15
421.205	134.09
421.417	13
421.629	31.4
421.842	39.35
422.054	24.62
422.266	100.38
422.479	112.58
422.691	60.27
422.903	86.62
423.115	47.29
423.328	81
423.54	82.94
423.752	65.31
423.964	62.4
424.177	57.17
424.389	89.72
424.601	165.09
424.813	93.6
425.025	96.89
425.238	97.08
425.45	37.99
425.662	78.29
425.874	352.83
426.086	47.29
426.298	107.16
426.51	76.55
426.722	73.64
426.934	64.34
427.146	71.32
427.358	49.23
427.57	103.28
427.782	112.58
427.994	78.87
428.206	56.4
428.418	44
428.63	89.91
428.842	138.93
429.054	104.64
429.266	103.09
429.478	63.57
429.69	99.02
429.902	26.17
430.114	130.8
430.325	92.63
430.537	50
430.749	65.12
430.961	29.66
431.173	55.43
431.384	112.39
431.596	14.93
431.808	63.76
432.02	64.73
432.231	99.8
432.443	111.81
432.655	100.18
432.867	80.61
433.078	108.9
433.29	143.58
433.502	114.33
433.713	99.41
433.925	59.69
434.136	123.43
434.348	45.93
434.56	29.66
434.771	179.23
434.983	59.5
435.194	65.7
435.406	86.23
435.617	102.12
435.829	137.58
436.04	104.25
436.252	122.08
436.463	139.71
436.675	112
436.886	87.2
437.098	137.58
437.309	137.38
437.521	72.28
437.732	109.1
437.943	114.71
438.155	113.16
438.366	69.18
438.578	140.1
438.789	100.57
439	111.23
439.211	105.61
439.423	120.53
439.634	118.2
439.845	119.75
440.057	105.8
440.268	132.15
440.479	113.75
440.69	103.67
440.902	104.83
441.113	98.63
441.324	74.03
441.535	115.88
441.746	156.37
441.957	81.97
442.168	105.61
442.38	116.07
442.591	111.42
442.802	85.07
443.013	94.95
443.224	107.55
443.435	100.18
443.646	119.17
443.857	79.45
444.068	115.3
444.279	101.54
444.49	162.18
444.701	101.54
444.912	195.31
445.123	138.16
445.334	126.53
445.545	111.81
445.756	122.85
445.967	92.82
446.178	127.31
446.388	151.53
446.599	144.75
446.81	148.23
447.021	117.43
447.232	151.53
447.443	182.91
447.653	96.7
447.864	170.51
448.075	131.76
448.286	134.67
448.496	118.4
448.707	161.6
448.918	122.66
449.129	221.47
449.339	106.77
449.55	163.93
449.761	137.19
449.971	180.39
450.182	128.08
450.393	157.15
450.603	138.35
450.814	158.5
451.024	132.93
451.235	164.7
451.446	189.11
451.656	195.7
451.867	120.72
452.077	142.42
452.288	212.94
452.498	174
452.709	136.41
452.919	161.6
453.13	128.47
453.34	185.63
453.55	132.54
453.761	173.61
453.971	164.51
454.182	176.52
454.392	157.92
454.602	210.81
454.813	178.07
455.023	192.79
455.233	112.2
455.444	163.73
455.654	108.32
455.864	166.64
456.075	150.36
456.285	150.75
456.495	131.57
456.705	183.11
456.916	171.48
457.126	224.96
457.336	169.93
457.546	133.9
457.756	124.6
457.967	184.08
458.177	135.25
458.387	157.53
458.597	152.88
458.807	152.11
459.017	190.47
459.227	169.16
459.437	137.19
459.647	195.31
459.857	217.59
460.068	130.21
460.278	217.4
460.488	173.03
460.698	215.66
460.908	163.35
461.117	130.8
461.327	128.47
461.537	176.91
461.747	171.68
461.957	160.44
462.167	243.36
462.377	195.7
462.587	174.97
462.797	195.51
463.007	174.39
463.216	174.58
463.426	212.17
463.636	213.14
463.846	130.6
464.056	164.12
464.265	231.93
464.475	171.29
464.685	161.21
464.895	205.39
465.104	173.61
465.314	212.94
465.524	162.96
465.733	158.89
465.943	243.36
466.153	227.09
466.362	200.93
466.572	177.68
466.782	157.15
466.991	206.94
467.201	219.14
467.41	111.81
467.62	200.74
467.829	169.35
468.039	197.64
468.249	172.84
468.458	167.22
468.668	205.39
468.877	202.09
469.086	241.81
469.296	194.34
469.505	167.22
469.715	254.21
469.924	197.06
470.134	250.92
470.343	254.99
470.552	198.99
470.762	199.77
470.971	181.94
471.18	190.47
471.39	171.87
471.599	166.06
471.808	235.23
472.018	167.8
472.227	220.89
472.436	222.24
472.645	203.26
472.855	172.06
473.064	251.31
473.273	194.93
473.482	221.08
473.691	246.66
473.901	230.38
474.11	192.21
474.319	274.75
474.528	212.75
474.737	265.45
474.946	225.54
475.155	234.06
475.364	262.74
475.573	208.68
475.783	235.23
475.992	253.83
476.201	284.44
476.41	238.91
476.619	227.28
476.828	241.62
477.037	230.77
477.245	235.81
477.454	241.04
477.663	228.64
477.872	221.08
478.081	313.69
478.29	211.98
478.499	307.11
478.708	249.37
478.917	312.14
479.125	260.61
479.334	273.97
479.543	261.57
479.752	255.37
479.961	277.46
480.169	276.49
480.378	230.19
480.587	370.07
480.796	297.42
481.004	249.76
481.213	286.18
481.422	249.37
481.63	264.67
481.839	291.02
482.048	351.28
482.256	285.02
482.465	311.56
482.674	317.96
482.882	307.3
483.091	352.64
483.299	285.6
483.508	322.61
483.716	308.46
483.925	314.08
484.134	281.92
484.342	286.18
484.551	345.66
484.759	313.69
484.967	334.04
485.176	322.8
485.384	315.44
485.593	334.23
485.801	338.88
486.01	289.47
486.218	313.69
486.426	256.34
486.635	284.82
486.843	288.89
487.051	297.22
487.26	295.67
487.468	301.68
487.676	349.92
487.885	298.19
488.093	323.77
488.301	339.07
488.509	316.02
488.717	368.52
488.926	307.49
489.134	304.39
489.342	317.37
489.55	281.14
489.758	330.55
489.967	287.73
490.175	411.34
490.383	308.66
490.591	398.75
490.799	296.84
491.007	373.17
491.215	332.1
491.423	332.49
491.631	313.31
491.839	339.07
492.047	374.72
492.255	325.12
492.463	317.57
492.671	363.1
492.879	380.15
493.087	348.37
493.295	377.24
493.503	371.04
493.711	356.9
493.919	376.27
494.127	366.59
494.334	375.69
494.542	332.29
494.75	376.27
494.958	358.64
495.166	406.69
495.374	374.92
495.581	397.39
495.789	382.86
495.997	422.77
496.205	367.94
496.412	341.79
496.62	371.62
496.828	410.18
497.035	366.39
497.243	401.07
497.451	391
497.658	377.63
497.866	367.55
498.074	424.13
498.281	372.79
498.489	438.47
498.696	396.62
498.904	367.17
499.112	352.83
499.319	439.82
499.527	401.85
499.734	438.66
499.942	363.29
500.149	358.84
500.357	417.54
500.564	369.49
500.771	413.09
500.979	371.24
501.186	385.96
501.394	412.31
501.601	412.89
501.808	434.4
502.016	412.89
502.223	404.95
502.43	405.92
502.638	378.4
502.845	396.23
503.052	447.18
503.26	399.14
503.467	441.95
503.674	409.21
503.881	407.85
504.089	502.4
504.296	473.73
504.503	359.8
504.71	440.98
504.917	393.52
505.125	459.2
505.332	420.06
505.539	437.69
505.746	498.92
505.953	470.43
506.16	438.08
506.367	494.85
506.574	500.85
506.781	507.05
506.988	422.58
507.195	456.87
507.402	441.57
507.609	475.67
507.816	460.17
508.023	451.83
508.23	433.62
508.437	415.99
508.644	491.75
508.851	496.98
509.058	499.5
509.265	483.8
509.472	504.15
509.679	555.88
509.885	489.42
510.092	478.18
510.299	465.98
510.506	501.05
510.713	490.2
510.92	489.62
511.126	508.6
511.333	562.66
511.54	518.29
511.746	540.76
511.953	547.93
512.16	555.68
512.367	506.67
512.573	485.35
512.78	513.25
512.987	517.32
513.193	542.9
513.4	452.8
513.606	486.52
513.813	557.04
514.02	515.97
514.226	570.99
514.433	602.76
514.639	487.48
514.846	542.51
515.052	506.86
515.259	545.22
515.465	524.3
515.672	539.6
515.878	652.56
516.085	561.88
516.291	565.37
516.497	562.66
516.704	536.89
516.91	499.88
517.117	489.23
517.323	467.92
517.529	546.96
517.736	520.23
517.942	528.56
518.148	498.92
518.354	553.94
518.561	535.92
518.767	568.86
518.973	599.08
519.179	614.78
519.386	589.2
519.592	576.03
519.798	547.55
520.004	619.62
520.21	565.56
520.417	610.71
520.623	635.89
520.829	633.76
521.035	637.44
521.241	662.44
521.447	674.26
521.653	748.85
521.859	624.27
522.065	667.86
522.271	747.11
522.477	690.73
522.683	725.79
522.889	678.91
523.095	726.96
523.301	680.65
523.507	671.74
523.713	702.74
523.919	618.65
524.125	741.1
524.331	711.65
524.537	763.96
524.742	746.72
524.948	751.37
525.154	752.14
525.36	843.2
525.566	740.52
525.772	807.75
525.977	708.94
526.183	808.52
526.389	811.62
526.595	713.59
526.8	745.75
527.006	703.51
527.212	700.8
527.417	685.88
527.623	676.78
527.829	771.71
528.034	775.59
528.24	745.75
528.446	764.93
528.651	807.94
528.857	836.23
529.062	831.58
529.268	810.85
529.473	811.62
529.679	777.52
529.884	874.59
530.09	857.15
530.295	887.57
530.501	854.25
530.706	878.27
530.912	808.33
531.117	875.37
531.323	841.65
531.528	909.47
531.733	871.88
531.939	843.79
532.144	874.98
532.35	842.82
532.555	886.41
532.76	900.94
532.966	897.26
533.171	875.17
533.376	876.33
533.581	832.35
533.787	850.76
533.992	871.68
534.197	908.5
534.402	896.48
534.607	900.36
534.813	985.41
535.018	892.61
535.223	879.82
535.428	900.75
535.633	906.95
535.838	947.25
536.043	907.53
536.249	994.71
536.454	925.93
536.659	946.67
536.864	909.85
537.069	938.53
537.274	977.28
537.479	949.96
537.684	958.29
537.889	898.81
538.094	994.13
538.299	959.84
538.504	970.3
538.708	984.83
538.913	1005.18
539.118	909.85
539.323	969.33
539.528	956.35
539.733	964.49
539.938	987.55
540.142	949.38
540.347	936.98
540.552	911.98
540.757	951.51
540.962	979.21
541.166	925.74
541.371	900.55
541.576	942.98
541.781	862.58
541.985	936.01
542.19	965.65
542.395	1022.42
542.599	1046.25
542.804	991.23
543.008	1028.23
543.213	965.26
543.418	948.22
543.622	1000.53
543.827	953.25
544.031	1015.64
544.236	1028.04
544.44	989.29
544.645	1078.03
544.849	965.26
545.054	1013.31
545.258	1062.33
545.463	1063.69
545.667	1001.88
545.872	1017.77
546.076	1024.75
546.281	1027.65
546.485	977.08
546.689	1033.66
546.894	1035.98
547.098	1031.33
547.302	983.48
547.507	1001.69
547.711	1034.63
547.915	1082.68
548.119	998.78
548.324	993.55
548.528	1101.66
548.732	1026.88
548.936	1046.64
549.141	1071.05
549.345	1007.11
549.549	1053.23
549.753	1037.53
549.957	1127.24
550.161	1098.37
550.366	1047.41
550.57	1022.03
550.774	1035.6
550.978	1012.93
551.182	1092.36
551.386	1029.01
551.59	1013.7
551.794	1046.83
551.998	1066.59
552.202	1047.99
552.406	1033.85
552.61	1031.72
552.814	1059.04
553.018	1127.63
553.222	1072.02
553.426	1044.7
553.63	1091.98
553.833	1069.89
554.037	1030.75
554.241	1059.23
554.445	1052.06
554.649	1038.7
554.853	1024.36
555.056	1084.03
555.26	1118.33
555.464	1061.36
555.668	1047.99
555.871	1093.53
556.075	1116
556.279	1043.34
556.483	983.86
556.686	1029.01
556.89	1065.04
557.094	1062.53
557.297	993.36
557.501	1121.43
557.704	995.88
557.908	1078.03
558.112	1007.11
558.315	1110.77
558.519	988.13
558.722	1018.55
558.926	1017.19
559.129	953.45
559.333	950.15
559.536	971.27
559.74	949.57
559.943	945.7
560.147	933.88
560.35	978.44
560.553	961.78
560.757	902.1
560.96	1035.01
561.164	968.56
561.367	1045.09
561.57	955.19
561.774	1003.63
561.977	980.96
562.18	962.55
562.384	1087.91
562.587	986.19
562.79	958.87
562.993	958.68
563.197	1012.73
563.4	1008.86
563.603	1006.15
563.806	1041.79
564.009	924
564.212	998.98
564.416	914.7
564.619	971.27
564.822	931.75
565.025	1004.21
565.228	943.57
565.431	943.95
565.634	851.54
565.837	905.2
566.04	897.45
566.243	893.77
566.446	829.06
566.649	932.72
566.852	844.56
567.055	908.11
567.258	924.77
567.461	985.22
567.664	919.35
567.867	855.99
568.07	929.03
568.273	893.58
568.475	930.39
568.678	871.68
568.881	847.85
569.084	869.17
569.287	810.46
569.489	830.8
569.692	905.4
569.895	916.63
570.098	809.1
570.3	827.32
570.503	771.91
570.706	804.45
570.909	789.54
571.111	749.82
571.314	766.09
571.516	766.87
571.719	831.77
571.922	783.53
572.124	768.81
572.327	795.35
572.529	724.63
572.732	741.87
572.935	776.56
573.137	842.43
573.34	784.3
573.542	811.82
573.745	782.75
573.947	779.27
574.15	767.84
574.352	725.41
574.554	817.63
574.757	733.35
574.959	731.8
575.162	758.73
575.364	727.92
575.566	840.49
575.769	720.76
575.971	756.21
576.173	681.81
576.376	720.76
576.578	752.14
576.78	806.39
576.982	666.51
577.185	671.35
577.387	670.96
577.589	698.28
577.791	724.05
577.993	746.72
578.196	711.46
578.398	722.31
578.6	760.09
578.802	663.41
579.004	690.53
579.206	702.16
579.408	714.36
579.61	700.22
579.812	724.63
580.014	692.66
580.216	702.54
580.418	670.77
580.62	667.86
580.822	640.93
581.024	702.35
581.226	747.3
581.428	682.78
581.63	754.66
581.832	702.74
582.034	754.86
582.236	700.61
582.438	698.47
582.64	753.31
582.841	750.01
583.043	788.37
583.245	739.74
583.447	719.59
583.649	689.18
583.85	709.71
584.052	716.49
584.254	669.61
584.456	720.76
584.657	663.79
584.859	696.73
585.061	698.67
585.262	685.11
585.464	662.44
585.666	719.59
585.867	682.78
586.069	737.81
586.27	724.24
586.472	654.88
586.674	656.24
586.875	651.39
587.077	645.19
587.278	679.49
587.48	657.21
587.681	730.06
587.883	716.3
588.084	604.89
588.285	646.16
588.487	673.48
588.688	658.56
588.89	601.6
589.091	613.03
589.292	630.08
589.494	600.63
589.695	578.16
589.896	558.59
590.098	551.03
590.299	606.06
590.5	554.33
590.702	563.05
590.903	598.31
591.104	645.39
591.305	600.63
591.507	641.71
591.708	661.08
591.909	618.07
592.11	666.51
592.311	616.13
592.512	589.4
592.714	567.11
592.915	577.96
593.116	578.74
593.317	608.77
593.518	603.35
593.719	579.51
593.92	618.65
594.121	639.77
594.322	603.15
594.523	604.12
594.724	571.18
594.925	584.75
595.126	628.53
595.327	625.82
595.528	615.74
595.729	609.93
595.929	623.11
596.13	611.29
596.331	590.56
596.532	612.64
596.733	625.04
596.934	644.03
597.135	641.13
597.335	622.14
597.536	587.65
597.737	622.14
597.938	576.03
598.138	607.99
598.339	592.3
598.54	615.36
598.74	602.18
598.941	588.04
599.142	635.51
599.342	607.03
599.543	560.72
599.744	596.37
599.944	613.03
600.145	580.1
600.345	570.8
600.546	686.85
600.746	644.03
600.947	653.33
601.147	638.03
601.348	660.69
601.548	569.05
601.749	597.34
601.949	583
602.15	582.03
602.35	589.78
602.551	649.26
602.751	546.77
602.951	602.76
603.152	529.33
603.352	609.93
603.552	611.48
603.753	648.1
603.953	614.39
604.153	572.35
604.354	567.5
604.554	577.38
604.754	596.37
604.954	556.26
605.155	604.51
605.355	569.25
605.555	650.62
605.755	635.51
605.955	584.55
606.155	626.21
606.356	548.9
606.556	598.11
606.756	570.21
606.956	545.61
607.156	638.99
607.356	571.38
607.556	604.7
607.756	613.03
607.956	629.5
608.156	563.63
608.356	569.83
608.556	607.22
608.756	559.95
608.956	541.93
609.156	578.16
609.356	552.58
609.556	532.43
609.755	568.47
609.955	545.8
610.155	580.1
610.355	586.49
610.555	527.01
610.755	555.49
610.954	513.06
611.154	547.35
611.354	603.54
611.554	539.21
611.753	525.46
611.953	505.5
612.153	569.25
612.352	567.7
612.552	518.1
612.752	502.02
612.951	533.01
613.151	548.9
613.351	508.02
613.55	533.98
613.75	563.82
613.949	500.08
614.149	540.18
614.348	531.46
614.548	513.45
614.747	463.65
614.947	478.77
615.146	467.92
615.346	530.69
615.545	513.25
615.745	551.03
615.944	541.93
616.144	491.55
616.343	547.16
616.542	500.47
616.742	511.12
616.941	513.25
617.14	464.43
617.34	493.88
617.539	496.2
617.738	463.65
617.938	561.3
618.137	508.99
618.336	473.34
618.535	508.02
618.734	495.04
618.934	529.91
619.133	494.27
619.332	528.95
619.531	463.27
619.73	493.68
619.929	548.32
620.128	526.43
620.328	554.13
620.527	481.28
620.726	497.56
620.925	525.85
621.124	480.32
621.323	498.14
621.522	446.8
621.721	434.98
621.92	477.41
622.119	530.88
622.318	463.07
622.517	475.86
622.715	465.01
622.914	438.08
623.113	454.93
623.312	406.11
623.511	489.62
623.71	468.69
623.909	444.86
624.107	514.8
624.306	449.51
624.505	432.85
624.704	428.97
624.902	439.43
625.101	508.99
625.3	457.26
625.499	444.67
625.697	432.65
625.896	439.05
626.095	476.25
626.293	417.15
626.492	435.17
626.69	471.02
626.889	424.71
627.088	456.87
627.286	433.82
627.485	408.05
627.683	419.29
627.882	473.15
628.08	386.93
628.279	412.7
628.477	478.57
628.676	399.72
628.874	451.06
629.073	397
629.271	403.79
629.469	401.27
629.668	410.76
629.866	438.08
630.065	388.29
630.263	456.1
630.461	390.42
630.66	407.66
630.858	454.16
631.056	443.12
631.254	473.73
631.453	399.14
631.651	453
631.849	418.12
632.047	453.77
632.245	460.55
632.444	424.52
632.642	455.32
632.84	454.93
633.038	394.1
633.236	413.47
633.434	409.4
633.632	388.48
633.83	393.13
634.028	451.64
634.227	427.62
634.425	477.6
634.623	427.42
634.821	431.68
635.019	402.62
635.216	431.3
635.414	449.12
635.612	441.95
635.81	416.57
636.008	474.12
636.206	404.37
636.404	447.57
636.602	391.58
636.8	420.25
636.997	439.05
637.195	480.7
637.393	419.87
637.591	471.98
637.789	427.62
637.986	394.68
638.184	413.28
638.382	471.98
638.58	439.82
638.777	468.5
638.975	398.94
639.173	434.98
639.37	434.2
639.568	439.43
639.765	466.95
639.963	431.88
640.161	435.17
640.358	436.14
640.556	401.46
640.753	406.89
640.951	359.61
641.148	428.97
641.346	394.87
641.543	407.66
641.741	447.96
641.938	392.94
642.136	401.46
642.333	390.22
642.531	438.08
642.728	450.09
642.925	447.77
643.123	407.08
643.32	399.33
643.517	407.08
643.715	417.54
643.912	379.95
644.109	437.69
644.306	396.04
644.504	366.59
644.701	381.5
644.898	446.22
645.095	372.01
645.293	391.19
645.49	420.06
645.687	419.67
645.884	439.05
646.081	371.24
646.278	388.29
646.475	380.54
646.672	388.67
646.87	417.54
647.067	400.1
647.264	419.09
647.461	331.71
647.658	360.77
647.855	396.42
648.052	353.41
648.249	299.94
648.446	339.07
648.642	342.75
648.839	321.83
649.036	360.77
649.233	329.19
649.43	327.06
649.627	299.55
649.824	352.44
650.021	330.55
650.217	329.19
650.414	306.91
650.611	342.95
650.808	371.24
651.004	381.7
651.201	352.05
651.398	391.19
651.595	362.52
651.791	345.47
651.988	390.03
652.185	329.97
652.381	358.84
652.578	296.84
652.775	347.6
652.971	353.99
653.168	348.18
653.364	349.15
653.561	300.32
653.757	334.23
653.954	337.52
654.15	301.87
654.347	413.47
654.543	336.94
654.74	303.23
654.936	295.29
655.133	345.85
655.329	339.46
655.525	322.61
655.722	368.33
655.918	330.36
656.115	378.21
656.311	277.07
656.507	279.4
656.704	252.47
656.9	249.76
657.096	258.67
657.292	262.93
657.489	326.09
657.685	321.64
657.881	286.96
658.077	310.01
658.273	297.22
658.47	352.25
658.666	297.03
658.862	316.02
659.058	283.86
659.254	346.82
659.45	293.35
659.646	311.76
659.842	309.43
660.038	338.69
660.234	293.93
660.43	307.88
660.626	374.53
660.822	337.72
661.018	317.96
661.214	291.22
661.41	260.61
661.606	316.21
661.802	327.45
661.998	312.53
662.194	293.35
662.39	317.57
662.586	317.37
662.781	317.96
662.977	326.09
663.173	353.6
663.369	314.47
663.564	320.67
663.76	322.99
663.956	287.54
664.152	339.27
664.347	257.31
664.543	292.96
664.739	284.82
664.934	264.48
665.13	249.95
665.326	322.8
665.521	307.3
665.717	262.74
665.912	262.93
666.108	241.23
666.304	267
666.499	272.04
666.695	232.71
666.89	262.54
667.086	333.07
667.281	281.72
667.477	354.77
667.672	296.84
667.867	286.37
668.063	300.32
668.258	254.02
668.454	257.31
668.649	343.14
668.844	288.31
669.04	284.24
669.235	266.42
669.43	281.72
669.626	223.6
669.821	271.07
670.016	223.99
670.211	277.66
670.407	251.31
670.602	265.06
670.797	249.37
670.992	298.77
671.187	258.67
671.382	275.33
671.578	252.86
671.773	286.76
671.968	230.38
672.163	268.94
672.358	272.62
672.553	262.54
672.748	247.24
672.943	331.52
673.138	272.62
673.333	275.72
673.528	228.25
673.723	280.17
673.918	258.28
674.113	234.84
674.308	330.16
674.503	291.22
674.698	284.44
674.892	261.57
675.087	303.42
675.282	295.48
675.477	235.03
675.672	271.26
675.867	279.59
676.061	207.13
676.256	234.06
676.451	228.83
676.646	264.48
676.84	225.15
677.035	227.48
677.23	224.38
677.424	284.44
677.619	262.16
677.814	287.73
678.008	279.98
678.203	206.94
678.397	254.99
678.592	235.61
678.787	306.91
678.981	243.36
679.176	296.06
679.37	267.97
679.565	254.41
679.759	243.94
679.954	273.2
680.148	303.04
680.342	298.77
680.537	272.04
680.731	238.71
680.926	267.77
681.12	294.51
681.314	255.96
681.509	227.67
681.703	248.79
681.897	295.48
682.092	222.63
682.286	259.83
682.48	321.44
682.674	284.63
682.869	244.33
683.063	267
683.257	321.25
683.451	251.5
683.645	299.74
683.839	273.39
684.034	250.14
684.228	304.78
684.422	237.74
684.616	239.68
684.81	315.05
685.004	289.47
685.198	278.24
685.392	292.96
685.586	277.66
685.78	268.36
685.974	273.59
686.168	273.2
686.362	316.6
686.556	233.09
686.75	208.1
686.944	246.08
687.138	287.15
687.331	209.07
687.525	234.64
687.719	190.47
687.913	239.68
688.107	211.78
688.301	211.78
688.494	256.92
688.688	223.6
688.882	201.9
689.076	185.04
689.269	217.59
689.463	287.73
689.657	258.09
689.85	228.83
690.044	229.61
690.238	233.29
690.431	234.64
690.625	261.77
690.818	276.88
691.012	256.15
691.205	272.81
691.399	232.71
691.593	279.21
691.786	326.48
691.98	302.46
692.173	338.3
692.366	286.37
692.56	295.29
692.753	370.65
692.947	261.38
693.14	344.3
693.333	350.12
693.527	280.76
693.72	318.34
693.914	312.92
694.107	345.66
694.3	322.02
694.493	318.54
694.687	381.7
694.88	348.76
695.073	355.15
695.266	355.54
695.46	346.63
695.653	412.7
695.846	398.94
696.039	285.79
696.232	370.07
696.425	405.53
696.618	386.93
696.812	375.69
697.005	423.74
697.198	482.25
697.391	415.22
697.584	438.66
697.777	488.26
697.97	473.92
698.163	487.48
698.356	477.22
698.549	547.35
698.742	491.17
698.935	471.98
699.127	505.7
699.32	426.84
699.513	462.88
699.706	496.98
699.899	513.25
700.092	473.15
700.285	523.13
700.477	490.2
700.67	532.43
700.863	549.87
701.056	622.91
701.248	570.41
701.441	589.78
701.634	557.62
701.826	638.8
702.019	545.03
702.212	629.5
702.404	596.37
702.597	565.56
702.79	593.08
702.982	630.66
703.175	667.48
703.367	675.23
703.56	693.24
703.752	737.61
703.945	691.11
704.137	710.29
704.33	726.76
704.522	738.39
704.715	734.12
704.907	753.31
705.1	763.38
705.292	780.62
705.484	772.29
705.677	822.28
705.869	790.7
706.061	848.82
706.254	896.87
706.446	825.19
706.638	814.34
706.831	892.03
707.023	861.42
707.215	948.8
707.407	899.39
707.599	923.03
707.792	939.11
707.984	933.88
708.176	960.23
708.368	918.77
708.56	972.24
708.752	977.66
708.944	983.67
709.136	1021.65
709.329	992.58
709.521	1108.25
709.713	1097.01
709.905	1035.4
710.097	1086.94
710.289	1051.87
710.481	1071.63
710.672	1123.75
710.864	1143.9
711.056	1150.68
711.248	1124.33
711.44	1170.64
711.632	1127.63
711.824	1148.55
712.016	1224.89
712.207	1212.87
712.399	1218.69
712.591	1253.37
712.783	1250.46
712.975	1265.19
713.166	1235.93
713.358	1257.24
713.55	1327.77
713.741	1282.82
713.933	1322.73
714.125	1311.49
714.316	1309.75
714.508	1349.47
714.7	1396.35
714.891	1381.05
715.083	1420.38
715.274	1388.02
715.466	1385.12
715.657	1452.35
715.849	1358.77
716.04	1436.65
716.232	1351.21
716.423	1429.87
716.615	1331.06
716.806	1268.09
716.998	1321.37
717.189	1291.54
717.381	1226.82
717.572	1213.46
717.763	1246
717.955	1230.31
718.146	1173.35
718.337	1146.22
718.528	1152.23
718.72	1076.48
718.911	1150.49
719.102	1115.23
719.293	1197.76
719.485	1163.08
719.676	1163.86
719.867	1118.13
720.058	1118.91
720.249	1152.04
720.44	1162.89
720.632	1196.02
720.823	1273.13
721.014	1345.2
721.205	1346.95
721.396	1398.87
721.587	1494
721.778	1503.69
721.969	1531.98
722.16	1613.93
722.351	1569.56
722.542	1674.19
722.733	1712.16
722.924	1660.43
723.115	1677.09
723.305	1688.14
723.496	1703.05
723.687	1569.56
723.878	1628.07
724.069	1617.61
724.26	1621.68
724.45	1606.76
724.641	1571.89
724.832	1603.47
725.023	1608.7
725.213	1573.05
725.404	1569.95
725.595	1636.21
725.785	1575.96
725.976	1666.05
726.167	1638.54
726.357	1621.87
726.548	1779.78
726.739	1663.14
726.929	1736.19
727.12	1783.85
727.31	1800.12
727.501	1733.67
727.691	1767.77
727.882	1788.11
728.072	1851.08
728.263	1819.5
728.453	1887.7
728.644	1861.93
728.834	1826.28
729.024	1832.09
729.215	1825.89
729.405	1876.65
729.596	1975.27
729.786	2006.46
729.976	1991.54
730.167	2027.39
730.357	1978.95
730.547	1972.17
730.737	2015.18
730.928	2009.37
731.118	2040.56
731.308	2017.89
731.498	2086.87
731.688	2154.29
731.879	2172.89
732.069	2192.46
732.259	2232.76
732.449	2241.09
732.639	2369.54
732.829	2379.23
733.019	2374.39
733.209	2439.87
733.399	2434.64
733.589	2485.79
733.779	2570.46
733.969	2538.1
734.159	2618.12
734.349	2616.18
734.539	2708.21
734.729	2688.45
734.919	2700.66
735.109	2758.01
735.299	2709.57
735.488	2746.58
735.678	2756.65
735.868	2748.32
736.058	2705.11
736.248	2716.55
736.437	2704.15
736.627	2722.16
736.817	2808.96
737.007	2812.06
737.196	2855.46
737.386	2802.57
737.576	2808.19
737.765	2888.21
737.955	2873.29
738.144	3004.26
738.334	2919.59
738.524	2867.48
738.713	2912.42
738.903	2926.18
739.092	2964.74
739.282	2962.22
739.471	3005.62
739.661	2981.59
739.85	3029.25
740.04	2991.09
740.229	3033.32
740.419	3044.75
740.608	3111.98
740.797	3078.27
740.987	3167.59
741.176	3160.61
741.365	3113.53
741.555	3110.24
741.744	3182.12
741.933	3152.86
742.123	3164.49
742.312	3182.9
742.501	3192.2
742.69	3223.97
742.88	3155.77
743.069	3292.94
743.258	3227.07
743.447	3289.65
743.636	3316.97
743.825	3282.68
744.014	3299.14
744.204	3290.04
744.393	3250.9
744.582	3389.43
744.771	3366.18
744.96	3311.16
745.149	3317.36
745.338	3364.82
745.527	3408.8
745.716	3313.87
745.905	3344.67
746.094	3402.41
746.283	3351.07
746.471	3383.62
746.66	3427.21
746.849	3463.25
747.038	3443.68
747.227	3379.36
747.416	3416.55
747.604	3394.27
747.793	3386.72
747.982	3434.57
748.171	3438.06
748.359	3457.44
748.548	3424.3
748.737	3451.04
748.926	3436.9
749.114	3281.51
749.303	3430.89
749.491	3424.11
749.68	3363.47
749.869	3450.27
750.057	3446.39
750.246	3365.6
750.434	3401.05
750.623	3391.56
750.811	3400.28
751	3425.66
751.188	3387.49
751.377	3403.19
751.565	3390.79
751.754	3387.3
751.942	3370.06
752.131	3422.95
752.319	3393.31
752.507	3347
752.696	3446.97
752.884	3436.12
753.072	3350.29
753.261	3404.35
753.449	3431.28
753.637	3375.09
753.825	3481.85
754.014	3404.93
754.202	3410.16
754.39	3442.32
754.578	3409.19
754.766	3381.49
754.955	3346.22
755.143	3472.16
755.331	3381.49
755.519	3359.4
755.707	3404.15
755.895	3368.7
756.083	3391.17
756.271	3340.99
756.459	3336.92
756.647	3363.66
756.835	3362.69
757.023	3385.75
757.211	3373.35
757.399	3380.13
757.587	3328.01
757.775	3259.62
757.963	3286.74
758.151	3318.52
758.339	3278.41
758.526	3302.24
758.714	3282.48
758.902	3172.82
759.09	3082.53
759.278	2877.36
759.465	2642.73
759.653	2287.4
759.841	2098.1
760.028	1787.92
760.216	1562.01
760.404	1457.77
760.591	1176.84
760.779	1043.15
760.967	878.47
761.154	740.13
761.342	754.86
761.529	744.78
761.717	810.65
761.905	784.89
762.092	883.89
762.28	802.32
762.467	777.52
762.655	725.41
762.842	764.93
763.029	762.41
763.217	756.02
763.404	754.27
763.592	798.64
763.779	773.46
763.966	823.83
764.154	866.45
764.341	916.83
764.528	893.38
764.716	980.76
764.903	1024.94
765.09	1081.13
765.277	1135.37
765.465	1293.86
765.652	1346.56
765.839	1427.55
766.026	1566.46
766.213	1602.69
766.4	1702.86
766.588	1879.36
766.775	1919.28
766.962	2039.21
767.149	2094.81
767.336	2271.9
767.523	2217.84
767.71	2365.48
767.897	2453.24
768.084	2549.54
768.271	2569.1
768.458	2654.35
768.645	2703.76
768.832	2660.55
769.019	2702.79
769.206	2764.6
769.392	2833.38
769.579	2891.11
769.766	2867.86
769.953	2868.25
770.14	2899.06
770.327	2912.81
770.513	2937.03
770.7	3010.27
770.887	2929.86
771.073	2989.15
771.26	2985.27
771.447	2971.71
771.634	2969.77
771.82	3044.75
772.007	2991.86
772.193	3001.16
772.38	2999.42
772.567	2973.65
772.753	2991.47
772.94	3056.57
773.126	2999.61
773.313	3007.36
773.499	3031
773.686	3035.26
773.872	2965.7
774.059	3005.81
774.245	2965.7
774.432	2979.85
774.618	2883.94
774.804	2967.06
774.991	2923.66
775.177	2978.88
775.363	2961.44
775.55	2964.35
775.736	2931.02
775.922	2956.79
776.109	2901.57
776.295	2933.74
776.481	2999.22
776.667	2948.46
776.853	2892.27
777.04	2896.73
777.226	2927.92
777.412	3009.3
777.598	2852.75
777.784	2896.54
777.97	2893.63
778.156	2935.29
778.342	2900.61
778.528	2891.31
778.715	2808.38
778.901	2857.59
779.087	2865.93
779.272	2834.54
779.458	2822.72
779.644	2872.9
779.83	2856.43
780.016	2951.56
780.202	2896.15
780.388	2860.11
780.574	2768.08
780.76	2762.46
780.946	2807.8
781.131	2807.99
781.317	2810.13
781.503	2795.79
781.689	2791.72
781.874	2869.03
782.06	2790.17
782.246	2778.74
782.432	2791.72
782.617	2774.48
782.803	2832.02
782.989	2677.99
783.174	2762.66
783.36	2658.03
783.545	2715.19
783.731	2731.85
783.916	2641.37
784.102	2752.2
784.288	2662.88
784.473	2731.27
784.659	2685.93
784.844	2686.9
785.029	2683.03
785.215	2652.42
785.4	2592.35
785.586	2676.05
785.771	2600.88
785.956	2655.9
786.142	2632.46
786.327	2626.65
786.512	2625.87
786.698	2629.36
786.883	2561.16
787.068	2578.6
787.254	2580.54
787.439	2536.94
787.624	2556.7
787.809	2549.15
787.994	2578.02
788.18	2588.29
788.365	2471.07
788.55	2521.83
788.735	2492.77
788.92	2480.37
789.105	2507.69
789.29	2528.61
789.475	2440.46
789.66	2464.48
789.845	2458.67
790.03	2439.68
790.215	2490.25
790.4	2472.81
790.585	2472.81
790.77	2439.29
790.955	2364.12
791.14	2442.39
791.325	2440.84
791.51	2363.54
791.695	2407.33
791.879	2424.18
792.064	2390.86
792.249	2474.75
792.434	2402.29
792.618	2419.92
792.803	2461.57
792.988	2403.26
793.173	2406.94
793.357	2473.2
793.542	2368.77
793.727	2441.42
793.911	2425.15
794.096	2408.29
794.281	2424.38
794.465	2480.56
794.65	2434.06
794.834	2480.17
795.019	2468.94
795.203	2488.31
795.388	2474.56
795.572	2549.15
795.757	2486.76
795.941	2461.77
796.126	2454.6
796.31	2390.47
796.494	2436.78
796.679	2423.02
796.863	2373.03
797.048	2491.41
797.232	2453.44
797.416	2495.09
797.601	2497.42
797.785	2531.13
797.969	2502.46
798.153	2407.52
798.338	2499.36
798.522	2491.99
798.706	2534.04
798.89	2494.71
799.074	2598.94
799.258	2535.39
799.443	2485.21
799.627	2516.02
799.811	2539.27
799.995	2502.07
800.179	2447.82
800.363	2476.69
800.547	2489.86
800.731	2492.19
800.915	2419.53
801.099	2403.26
801.283	2447.24
801.467	2421.47
801.651	2456.15
801.835	2496.45
802.019	2418.76
802.202	2479.98
802.386	2409.84
802.57	2421.86
802.754	2431.74
802.938	2427.28
803.121	2424.57
803.305	2501.87
803.489	2472.42
803.673	2460.61
803.856	2468.36
804.04	2462.35
804.224	2488.89
804.407	2427.86
804.591	2413.14
804.775	2442.2
804.958	2459.64
805.142	2580.92
805.326	2454.41
805.509	2417.59
805.693	2506.52
805.876	2540.04
806.06	2474.94
806.243	2507.69
806.427	2493.35
806.61	2531.9
806.794	2487.54
806.977	2531.13
807.16	2504.39
807.344	2511.37
807.527	2461.57
807.71	2487.34
807.894	2444.91
808.077	2516.79
808.26	2457.89
808.444	2416.63
808.627	2469.52
808.81	2412.36
808.993	2394.34
809.177	2368.38
809.36	2389.89
809.543	2399.19
809.726	2318.4
809.909	2299.02
810.092	2286.62
810.276	2297.08
810.459	2335.64
810.642	2299.41
810.825	2251.75
811.008	2281.39
811.191	2163.79
811.374	2202.73
811.557	2223.27
811.74	2243.61
811.923	2195.75
812.106	2124.07
812.289	2112.64
812.472	2129.69
812.654	2113.41
812.837	2065.17
813.02	2048.51
813.203	2017.7
813.386	1934.78
813.569	1925.28
813.751	1883.63
813.934	1900.48
814.117	1899.32
814.3	1832.86
814.482	1795.08
814.665	1746.07
814.848	1706.93
815.03	1678.64
815.213	1675.54
815.396	1638.92
815.578	1660.43
815.761	1601.53
815.943	1636.41
816.126	1540.31
816.309	1543.41
816.491	1523.45
816.674	1431.23
816.856	1526.16
817.039	1519.19
817.221	1593.78
817.403	1495.16
817.586	1494.58
817.768	1514.73
817.951	1461.45
818.133	1459.32
818.315	1471.72
818.498	1502.33
818.68	1575.37
818.862	1558.91
819.045	1525.39
819.227	1534.11
819.409	1519.58
819.591	1558.91
819.774	1515.12
819.956	1500.59
820.138	1565.11
820.32	1572.47
820.502	1660.24
820.684	1692.01
820.866	1711
821.048	1730.95
821.231	1762.15
821.413	1763.12
821.595	1732.7
821.777	1754.98
821.959	1769.7
822.141	1786.75
822.323	1647.26
822.505	1602.89
822.686	1558.71
822.868	1479.47
823.05	1361.48
823.232	1347.14
823.414	1287.08
823.596	1411.85
823.778	1347.33
823.96	1366.71
824.141	1381.43
824.323	1440.72
824.505	1506.59
824.687	1535.08
824.868	1578.86
825.05	1653.65
825.232	1667.4
825.413	1737.74
825.595	1704.8
825.777	1647.84
825.958	1698.02
826.14	1713.32
826.321	1731.73
826.503	1674.57
826.685	1729.6
826.866	1765.83
827.048	1727.47
827.229	1648.42
827.411	1619.94
827.592	1579.83
827.773	1573.82
827.955	1549.41
828.136	1561.04
828.318	1528.68
828.499	1546.89
828.68	1494
828.862	1512.21
829.043	1551.74
829.224	1508.34
829.406	1497.68
829.587	1486.83
829.768	1511.05
829.949	1547.09
830.131	1544.57
830.312	1570.72
830.493	1519.58
830.674	1512.02
830.855	1500.01
831.036	1519.58
831.218	1588.55
831.399	1589.71
831.58	1536.04
831.761	1516.09
831.942	1597.27
832.123	1519.58
832.304	1506.4
832.485	1484.7
832.666	1539.92
832.847	1573.44
833.028	1524.23
833.209	1491.48
833.389	1516.48
833.57	1485.48
833.751	1484.89
833.932	1546.7
834.113	1483.34
834.294	1532.94
834.475	1536.04
834.655	1600.76
834.836	1557.16
835.017	1546.89
835.198	1508.73
835.378	1566.85
835.559	1599.4
835.74	1536.04
835.92	1522.29
836.101	1543.21
836.281	1586.81
836.462	1590.87
836.643	1582.74
836.823	1605.79
837.004	1601.92
837.184	1625.56
837.365	1613.16
837.545	1637.96
837.726	1601.14
837.906	1641.83
838.087	1628.85
838.267	1596.88
838.448	1556
838.628	1599.98
838.808	1611.41
838.989	1670.89
839.169	1605.6
839.349	1615.48
839.53	1636.99
839.71	1660.62
839.89	1572.08
840.07	1628.27
840.251	1608.51
840.431	1644.54
840.611	1572.86
840.791	1557.74
840.971	1627.69
841.151	1592.04
841.332	1570.14
841.512	1635.24
841.692	1556.97
841.872	1605.79
842.052	1571.89
842.232	1639.51
842.412	1540.11
842.592	1574.99
842.772	1611.41
842.952	1595.52
843.132	1556
843.312	1579.64
843.492	1545.54
843.672	1609.67
843.851	1533.33
844.031	1569.17
844.211	1559.49
844.391	1537.59
844.571	1556.19
844.751	1587.58
844.93	1557.16
845.11	1531.2
845.29	1565.49
845.47	1577.7
845.649	1566.85
845.829	1592.62
846.009	1543.6
846.188	1569.37
846.368	1565.69
846.547	1546.12
846.727	1597.07
846.907	1520.16
847.086	1554.26
847.266	1602.31
847.445	1543.41
847.625	1505.24
847.804	1523.45
847.984	1554.26
848.163	1526.55
848.343	1538.37
848.522	1503.3
848.701	1542.83
848.881	1493.61
849.06	1509.89
849.239	1517.06
849.419	1494.58
849.598	1444.6
849.777	1448.08
849.957	1424.06
850.136	1388.99
850.315	1387.05
850.494	1385.89
850.674	1381.63
850.853	1475.4
851.032	1394.22
851.211	1494
851.39	1415.92
851.569	1377.75
851.748	1348.69
851.927	1460.87
852.107	1406.23
852.286	1375.04
852.465	1375.82
852.644	1436.07
852.823	1397.51
853.002	1420.57
853.181	1404.49
853.359	1396.35
853.538	1317.69
853.717	1400.03
853.896	1339.58
854.075	1252.59
854.254	1245.62
854.433	1169.67
854.611	1230.7
854.79	1169.47
854.969	1240.19
855.148	1257.44
855.327	1202.61
855.505	1275.45
855.684	1282.24
855.863	1295.41
856.041	1262.28
856.22	1322.92
856.399	1290.57
856.577	1357.02
856.756	1342.3
856.934	1451.76
857.113	1433.55
857.291	1380.66
857.47	1323.89
857.648	1350.63
857.827	1379.69
858.005	1392.28
858.184	1304.52
858.362	1433.16
858.541	1341.33
858.719	1326.6
858.898	1331.06
859.076	1320.98
859.254	1378.14
859.433	1338.42
859.611	1333.77
859.789	1264.6
859.967	1377.17
860.146	1407.4
860.324	1281.65
860.502	1319.63
860.68	1274.1
860.859	1280.3
861.037	1274.29
861.215	1308.2
861.393	1284.17
861.571	1298.12
861.749	1299.09
861.927	1289.02
862.105	1294.64
862.283	1288.05
862.461	1272.35
862.639	1264.8
862.817	1262.67
862.995	1309.94
863.173	1250.85
863.351	1250.46
863.529	1266.35
863.707	1331.06
863.885	1288.44
864.063	1212.49
864.241	1274.49
864.418	1297.15
864.596	1241.94
864.774	1213.46
864.952	1218.69
865.129	1273.71
865.307	1212.1
865.485	1170.06
865.663	1241.74
865.84	1161.53
866.018	1192.34
866.196	1037.15
866.373	1081.51
866.551	1077.64
866.728	1035.6
866.906	1067.95
867.084	1105.54
867.261	1105.73
867.439	1136.34
867.616	1156.69
867.794	1136.15
867.971	1160.17
868.149	1148.16
868.326	1206.87
868.503	1196.6
868.681	1184.39
868.858	1120.84
869.035	1154.75
869.213	1129.37
869.39	1125.88
869.567	1203.38
869.745	1133.24
869.922	1161.92
870.099	1188.46
870.276	1163.47
870.454	1184.59
870.631	1155.91
870.808	1156.3
870.985	1180.32
871.162	1226.05
871.339	1162.31
871.517	1117.94
871.694	1117.36
871.871	1139.06
872.048	1079.58
872.225	1126.66
872.402	1136.92
872.579	1103.79
872.756	1162.5
872.933	1092.75
873.11	1136.92
873.287	1148.94
873.463	1084.42
873.64	1045.09
873.817	1102.44
873.994	1106.12
874.171	1083.84
874.348	1112.71
874.524	1045.86
874.701	1069.69
874.878	1044.7
875.055	1098.56
875.231	1058.84
875.408	1090.04
875.585	1015.83
875.762	1082.68
875.938	1029.98
876.115	1034.63
876.291	1053.03
876.468	1037.92
876.645	1006.92
876.821	1019.51
876.998	1044.51
877.174	1024.16
877.351	1001.11
877.527	1007.11
877.704	1041.21
877.88	1033.08
878.057	1031.14
878.233	1079.77
878.409	1003.43
878.586	1053.81
878.762	1010.02
878.938	1014.09
879.115	941.63
879.291	992.39
879.467	937.56
879.644	992.2
879.82	1014.09
879.996	972.82
880.172	942.6
880.349	965.07
880.525	982.12
880.701	942.6
880.877	944.73
881.053	980.57
881.229	972.82
881.405	1023.58
881.581	959.06
881.757	956.93
881.933	1002.85
882.109	972.05
882.285	952.28
882.461	918.96
882.637	1004.01
882.813	926.71
882.989	931.75
883.165	998.01
883.341	953.06
883.517	989.87
883.693	979.21
883.869	981.15
884.044	945.12
884.22	984.06
884.396	988.51
884.572	993.94
884.747	1003.82
884.923	974.18
885.099	997.04
885.275	1000.33
885.45	959.65
885.626	992
885.801	961.58
885.977	958.48
886.153	908.3
886.328	980.18
886.504	910.43
886.679	955.19
886.855	923.42
887.03	979.02
887.206	983.09
887.381	967.59
887.557	989.48
887.732	963.52
887.908	994.52
888.083	992.58
888.258	952.09
888.434	948.6
888.609	942.4
888.784	983.48
888.96	948.6
889.135	949.38
889.31	907.72
889.485	996.65
889.661	939.69
889.836	974.56
890.011	981.54
890.186	966.43
890.361	933.49
890.537	981.15
890.712	941.82
890.887	983.48
891.062	973.4
891.237	1005.18
891.412	913.34
891.587	956.55
891.762	989.1
891.937	1014.86
892.112	918.57
892.287	953.06
892.462	890.28
892.637	895.13
892.812	856.77
892.987	883.5
893.161	870.52
893.336	864.9
893.511	876.53
893.686	854.64
893.861	886.99
894.035	869.55
894.21	877.69
894.385	786.63
894.56	846.89
894.734	792.05
894.909	785.85
895.084	794.57
895.258	769.19
895.433	806.59
895.608	735.67
895.782	705.26
895.957	744.01
896.131	719.98
896.306	660.11
896.48	676.78
896.655	690.73
896.829	622.14
897.004	624.46
897.178	629.31
897.353	626.98
897.527	654.88
897.701	624.66
897.876	600.63
898.05	690.34
898.224	638.22
898.399	657.4
898.573	623.88
898.747	541.35
898.921	587.07
899.096	515.38
899.27	522.16
899.444	540.18
899.618	545.22
899.792	560.91
899.967	558.98
900.141	587.65
900.315	521.78
900.489	529.14
900.663	572.73
900.837	552.2
901.011	520.61
901.185	606.64
901.359	556.65
901.533	575.45
901.707	572.73
901.881	553.55
902.055	537.47
902.229	560.91
902.403	586.49
902.576	537.47
902.75	583.78
902.924	663.02
903.098	636.48
903.272	629.31
903.446	685.11
903.619	635.89
903.793	705.45
903.967	652.36
904.14	712.23
904.314	736.26
904.488	696.15
904.661	727.15
904.835	688.98
905.009	734.51
905.182	757.76
905.356	706.22
905.529	703.51
905.703	683.17
905.876	667.28
906.05	650.04
906.223	639.38
906.397	605.67
906.57	571.18
906.744	539.21
906.917	542.7
907.09	531.46
907.264	530.5
907.437	532.63
907.61	498.92
907.784	513.25
907.957	537.47
908.13	484.97
908.304	547.16
908.477	477.99
908.65	508.02
908.823	441.76
908.996	530.88
909.17	485.74
909.343	467.72
909.516	491.94
909.689	492.33
909.862	453.77
910.035	490.97
910.208	444.47
910.381	448.15
910.554	522.94
910.727	465.2
910.9	469.08
911.073	483.03
911.246	524.68
911.419	537.08
911.592	522.16
911.765	472.95
911.938	421.22
912.11	474.12
912.283	484.58
912.456	519.84
912.629	487.1
912.802	434.98
912.974	423.74
913.147	403.79
913.32	341.21
913.493	405.72
913.665	408.05
913.838	407.47
914.01	381.5
914.183	420.64
914.356	429.94
914.528	439.24
914.701	502.21
914.873	472.76
915.046	413.67
915.218	393.13
915.391	329.39
915.563	348.18
915.736	403.4
915.908	415.41
916.081	423.55
916.253	402.04
916.425	430.72
916.598	452.61
916.77	390.61
916.942	382.09
917.115	317.37
917.287	402.82
917.459	405.72
917.632	358.06
917.804	286.96
917.976	373.37
918.148	419.67
918.32	408.05
918.493	415.6
918.665	443.12
918.837	432.85
919.009	497.75
919.181	470.05
919.353	424.32
919.525	439.24
919.697	452.61
919.869	415.22
920.041	474.12
920.213	549.29
920.385	481.28
920.557	471.02
920.729	453.97
920.901	454.16
921.073	447.77
921.244	446.8
921.416	447.18
921.588	454.16
921.76	449.7
921.932	493.68
922.103	446.22
922.275	444.47
922.447	466.75
922.619	373.95
922.79	428.2
922.962	393.9
923.134	444.86
923.305	383.64
923.477	381.31
923.648	403.98
923.82	378.99
923.991	310.98
924.163	364.45
924.335	407.66
924.506	346.44
924.677	434.4
924.849	337.14
925.02	410.95
925.192	406.89
925.363	362.9
925.535	398.17
925.706	353.8
925.877	414.83
926.049	341.98
926.22	383.44
926.391	394.68
926.562	388.67
926.734	366.2
926.905	415.41
927.076	330.94
927.247	362.52
927.419	320.28
927.59	316.21
927.761	295.48
927.932	323.57
928.103	307.69
928.274	261.38
928.445	255.57
928.616	286.76
928.787	269.13
928.958	284.05
929.129	255.96
929.3	256.92
929.471	203.06
929.642	184.08
929.813	174
929.984	219.14
930.155	127.5
930.326	214.49
930.496	161.41
930.667	139.32
930.838	177.1
931.009	116.85
931.18	136.61
931.35	144.16
931.521	113.16
931.692	94.37
931.863	53.49
932.033	135.64
932.204	126.15
932.374	132.15
932.545	64.73
932.716	132.35
932.886	130.41
933.057	37.8
933.227	72.48
933.398	150.17
933.568	43.03
933.739	28.88
933.909	44.19
934.08	100.96
934.25	-3.47
934.421	28.11
934.591	69.57
934.761	39.93
934.932	-18.2
935.102	49.23
935.272	16.1
935.443	34.89
935.613	41.87
935.783	34.5
935.953	12.03
936.123	165.09
936.294	19
936.464	2.34
936.634	35.08
936.804	-5.22
936.974	-0.18
937.144	41.87
937.314	25.78
937.484	12.61
937.655	27.72
937.825	90.88
937.995	25.78
938.165	53.68
938.334	36.83
938.504	65.12
938.674	31.6
938.844	54.07
939.014	100.18
939.184	77.9
939.354	153.85
939.524	135.06
939.694	64.34
939.863	88.36
940.033	160.05
940.203	135.64
940.373	101.73
940.542	113.36
940.712	93.21
940.882	108.32
941.051	132.15
941.221	118.98
941.391	136.22
941.56	68.6
941.73	79.84
941.899	195.31
942.069	47.1
942.238	84.3
942.408	111.61
942.577	109.48
942.747	53.68
942.916	29.66
943.086	47.48
943.255	116.65
943.425	81.78
943.594	59.69
943.763	5.25
943.933	46.52
944.102	-10.64
944.271	69.96
944.441	82.75
944.61	51.55
944.779	59.88
944.948	131.57
945.117	39.93
945.287	40.32
945.456	3.12
945.625	30.43
945.794	72.28
945.963	26.56
946.132	79.84
946.301	37.99
946.47	73.25
946.639	14.93
946.808	44.19
946.977	85.46
947.146	100.18
947.315	43.22
947.484	74.22
947.653	50.78
947.822	30.82
947.991	51.17
948.16	114.52
948.329	87.01
948.498	66.67
948.666	40.32
948.835	77.52
949.004	17.65
949.173	17.65
949.341	56.78
949.51	92.82
949.679	102.51
949.847	76.93
950.016	146.3
950.185	132.73
950.353	40.9
950.522	59.3
950.69	102.12
950.859	49.62
951.028	92.82
951.196	59.3
951.365	18.81
951.533	44.19
951.701	87.78
951.87	97.08
952.038	28.69
952.207	60.85
952.375	120.33
952.543	69.96
952.712	47.1
952.88	39.35
953.048	115.3
953.217	73.64
953.385	36.44
953.553	94.56
953.721	35.28
953.89	51.55
954.058	32.57
954.226	25.01
954.394	62.79
954.562	33.92
954.73	66.47
954.898	71.51
955.067	108.71
955.235	51.36
955.403	90.11
955.571	100.76
955.739	79.84
955.907	32.37
956.075	29.08
956.243	26.95
956.41	80.81
956.578	10.48
956.746	3.5
956.914	56.4
957.082	92.82
957.25	87.4
957.418	65.89
957.585	60.08
957.753	105.03
957.921	29.27
958.089	81.39
958.256	93.98
958.424	70.93
958.592	96.7
958.759	31.79
958.927	84.1
959.095	30.63
959.262	59.11
959.43	85.85
959.597	39.93
959.765	70.15
959.932	27.72
960.1	96.5
960.267	57.37
960.435	64.15
960.602	98.44
960.77	60.66
960.937	49.81
961.104	66.08
961.272	25.78
961.439	75.38
961.606	71.51
961.774	68.22
961.941	48.65
962.108	63.37
962.275	89.72
962.443	114.13
962.61	113.94
962.777	110.26
962.944	94.37
963.111	97.08
963.278	81.78
963.446	68.8
963.613	65.12
963.78	83.33
963.947	108.9
964.114	100.38
964.281	148.04
964.448	106
964.615	70.15
964.782	91.66
964.949	111.61
965.116	87.59
965.282	127.11
965.449	68.41
965.616	54.65
965.783	109.29
965.95	88.95
966.117	49.62
966.283	68.8
966.45	97.66
966.617	70.93
966.784	131.57
966.95	117.62
967.117	98.05
967.284	73.45
967.45	66.28
967.617	109.87
967.784	125.18
967.95	138.74
968.117	83.91
968.283	143.78
968.45	202.87
968.616	109.87
968.783	145.33
968.949	107.16
969.116	127.7
969.282	87.59
969.449	104.25
969.615	98.44
969.781	42.25
969.948	108.32
970.114	62.6
970.28	171.29
970.447	93.4
970.613	153.27
970.779	111.61
970.945	110.06
971.112	137.38
971.278	119.56
971.444	85.46
971.61	129.83
971.776	104.64
971.942	135.25
972.108	121.88
972.275	81.78
972.441	111.23
972.607	181.75
972.773	116.26
972.939	129.83
973.105	102.51
973.271	76.55
973.437	55.82
973.602	61.82
973.768	120.33
973.934	120.53
974.1	125.37
974.266	29.47
974.432	112.39
974.598	97.28
974.763	112.39
974.929	104.45
975.095	167.61
975.261	46.71
975.426	48.65
975.592	82.36
975.758	149.4
975.923	58.14
976.089	71.32
976.255	105.22
976.42	110.84
976.586	112.78
976.751	110.26
976.917	173.81
977.082	127.89
977.248	28.69
977.413	42.25
977.579	79.84
977.744	104.25
977.91	51.75
978.075	59.3
978.24	99.41
978.406	74.03
978.571	60.27
978.736	74.22
978.902	102.9
979.067	51.55
979.232	80.23
979.397	59.69
979.563	135.06
979.728	68.02
979.893	86.04
980.058	69.77
980.223	109.68
980.388	90.69
980.554	106.38
980.719	49.23
980.884	85.85
981.049	99.8
981.214	70.54
981.379	91.85
981.544	74.22
981.709	71.7
981.874	62.6
982.039	112.58
982.204	110.26
982.368	85.26
982.533	34.31
982.698	102.51
982.863	131.18
983.028	100.96
983.193	96.31
983.357	88.95
983.522	108.13
983.687	108.32
983.852	92.05
984.016	59.3
984.181	71.12
984.346	100.38
984.51	89.72
984.675	114.71
984.839	81
985.004	115.3
985.168	114.33
985.333	115.88
985.498	79.65
985.662	124.79
985.827	93.6
985.991	81.2
986.155	93.01
986.32	112.78
986.484	141.26
986.649	119.75
986.813	66.28
986.977	93.01
987.142	100.57
987.306	66.67
987.47	72.48
987.634	62.4
987.799	100.38
987.963	100.96
988.127	114.52
988.291	141.65
988.455	95.73
988.62	68.99
988.784	84.88
988.948	112.78
989.112	39.54
989.276	62.79
989.44	64.53
989.604	76.35
989.768	103.48
989.932	144.75
990.096	73.25
990.26	67.83
990.424	39.15
990.588	68.8
990.752	140.48
990.915	87.98
991.079	81
991.243	40.51
991.407	110.06
991.571	93.21
991.734	126.15
991.898	109.87
992.062	169.54
992.226	87.4
992.389	54.07
992.553	22.1
992.717	58.92
992.88	63.57
993.044	87.01
993.207	90.3
993.371	99.99
993.535	111.61
993.698	83.33
993.862	90.69
994.025	106.38
994.189	104.06
994.352	81.97
994.515	84.88
994.679	123.43
994.842	62.02
995.006	101.15
995.169	37.02
995.332	38.38
995.496	103.28
995.659	29.08
995.822	85.65
995.985	74.8
996.149	114.13
996.312	48.26
996.475	126.53
996.638	50.2
996.801	117.04
996.964	109.68
997.128	65.31
997.291	60.08
997.454	67.83
997.617	34.31
997.78	116.07
997.943	42.45
998.106	103.67
998.269	34.89
998.432	77.71
998.595	67.83
998.758	24.82
998.92	34.12
999.083	12.61
999.246	64.15
999.409	27.53
999.572	10.67
999.735	49.03
999.897	77.32
1000.06	45.93
1000.223	44.19
1000.386	91.27
1000.548	97.47
1000.711	89.14
1000.874	84.88
1001.036	10.09
1001.199	92.24
1001.361	16.48
1001.524	60.27
1001.687	43.03
1001.849	27.33
1002.012	63.18
1002.174	70.35
1002.337	76.74
1002.499	48.65
1002.661	90.88
1002.824	38.57
1002.986	39.93
1003.149	50.78
1003.311	10.48
1003.473	84.3
1003.636	39.93
1003.798	65.7
1003.96	76.35
1004.123	60.85
1004.285	42.25
1004.447	76.93
1004.609	45.16
1004.771	86.81
1004.933	35.86
1005.096	43.61
1005.258	15.13
1005.42	38.77
1005.582	94.37
1005.744	62.6
1005.906	31.98
1006.068	26.95
1006.23	-0.37
1006.392	-10.25
1006.554	-0.18
1006.716	79.26
1006.878	90.5
1007.04	24.62
1007.202	30.63
1007.363	56.78
1007.525	54.85
1007.687	51.17
1007.849	77.71
1008.011	14.55
1008.172	6.41
1008.334	36.44
1008.496	76.35
1008.658	-18.58
1008.819	21.33
1008.981	19.2
1009.143	17.45
1009.304	30.05
1009.466	87.01
1009.627	96.5
1009.789	131.57
1009.95	60.47
1010.112	30.63
1010.273	51.75
1010.435	14.35
1010.596	24.04
1010.758	15.71
1010.919	39.15
1011.081	5.44
1011.242	53.88
1011.403	31.79
1011.565	31.02
1011.726	41.28
1011.887	8.35
1012.049	30.82
1012.21	72.28
1012.371	91.08
1012.532	-68.76
1012.693	41.09
1012.855	18.81
1013.016	36.44
1013.177	49.23
1013.338	60.85
1013.499	87.4
1013.66	56.2
1013.821	60.08
1013.982	46.52
1014.143	44.19
1014.304	6.6
1014.465	33.73
1014.626	40.32
1014.787	11.06
1014.948	108.51
1015.109	-35.63
1015.27	76.16
1015.431	15.32
1015.592	13
1015.752	78.29
1015.913	14.16
1016.074	36.44
1016.235	21.91
1016.395	13.38
1016.556	25.01
1016.717	23.65
1016.877	63.37
1017.038	5.25
1017.199	27.14
1017.359	41.09
1017.52	20.36
1017.681	6.99
1017.841	23.65
1018.002	48.07
1018.162	29.85
1018.323	45.16
1018.483	28.69
1018.644	23.65
1018.804	-18.97
1018.964	-23.04
1019.125	14.16
1019.285	27.33
1019.446	-17.81
1019.606	-10.64
1019.766	-32.73
1019.926	36.05
1020.087	43.61
1020.247	-7.54
1020.407	21.72
1020.567	72.87
1020.728	37.6
1020.888	0.98
1021.048	-4.25
1021.208	2.34
1021.368	15.52
1021.528	50.58
1021.688	69.77
1021.848	46.32
1022.008	15.9
1022.168	-3.86
1022.328	16.1
1022.488	37.8
1022.648	0.98
1022.808	19.58
1022.968	42.83
1023.128	-0.76
1023.288	19.78
1023.448	28.3
1023.608	34.89
1023.767	36.05
1023.927	-4.25
1024.087	-2.5
1024.247	-19.16
1024.406	4.86
1024.566	-1.92
1024.726	2.73
1024.885	38.57
1025.045	45.55
1025.205	20.55
1025.364	2.15
1025.524	28.11
1025.683	19.39
1025.843	13.19
1026.003	34.7
1026.162	46.32
1026.321	46.52
1026.481	39.93
1026.64	7.57
1026.8	40.51
1026.959	-0.95
1027.119	3.5
1027.278	1.18
1027.437	-3.47
1027.597	50.2
1027.756	37.02
1027.915	34.7
1028.074	17.65
1028.234	-4.05
1028.393	16.29
1028.552	2.15
1028.711	-55.01
1028.87	48.84
1029.03	-18.2
1029.189	14.35
1029.348	-45.13
1029.507	-3.47
1029.666	-12.19
1029.825	-7.73
1029.984	-3.67
1030.143	5.05
1030.302	9.51
1030.461	-12.19
1030.62	29.66
1030.779	37.8
1030.938	-7.15
1031.097	-21.88
1031.255	8.73
1031.414	40.9
1031.573	48.07
1031.732	-46.87
1031.891	23.07
1032.049	62.4
1032.208	57.17
1032.367	-11.22
1032.525	11.06
1032.684	16.29
1032.843	-9.86
1033.001	-47.65
1033.16	139.71
1033.319	29.66
1033.477	30.82
1033.636	7.96
1033.794	-15.68
1033.953	51.55
1034.111	31.21
1034.27	-3.86
1034.428	37.22
1034.587	-23.23
1034.745	17.84
1034.903	13.19
1035.062	27.33
1035.22	-34.28
1035.378	38.38
1035.537	-15.48
1035.695	48.26
1035.853	6.8
1036.011	25.01
1036.17	16.1
1036.328	-42.03
1036.486	39.35
1036.644	2.15
1036.802	-38.35
1036.96	-8.7
1037.119	-5.8
1037.277	-15.1
1037.435	-55.2
1037.593	-27.5
1037.751	-15.29
1037.909	43.03
1038.067	43.03
