Data from oakcork_FLMT105791__47__17-27-22-066.txt Node

Date: Mon Mar 20 17:27:22 GMT 2023
User: antho
Spectrometer: FLMT10579
Trigger mode: 0
Integration Time (sec): 1.000000E-1
Scans to average: 10
Electric dark correction enabled: true
Nonlinearity correction enabled: false
Boxcar width: 0
XAxis mode: Wavelengths
Number of Pixels in Spectrum: 3648
>>>>>Begin Spectral Data<<<<<
345.248	-138.09
345.464	-138.09
345.681	-138.09
345.898	-190.02
346.114	-157.47
346.331	-40.64
346.548	51.39
346.764	-12.35
346.981	-16.61
347.197	-30.76
347.414	29.89
347.631	-8.28
347.847	45.58
348.064	-11.77
348.28	29.11
348.497	-32.69
348.713	-2.86
348.93	43.06
349.146	15.74
349.363	-7.7
349.579	4.7
349.796	14.39
350.012	-25.91
350.229	29.5
350.445	8.19
350.661	-26.11
350.878	-11.58
351.094	-7.51
351.311	36.09
351.527	16.9
351.743	-17
351.96	6.25
352.176	51.97
352.392	16.13
352.609	15.94
352.825	33.95
353.041	-5.18
353.257	6.64
353.474	2.76
353.69	8.19
353.906	24.46
354.122	-33.86
354.339	78.71
354.555	3.34
354.771	-4.6
354.987	23.3
355.203	58.56
355.42	-6.35
355.636	-32.11
355.852	-4.02
356.068	11.09
356.284	-29.21
356.5	53.72
356.716	40.74
356.932	3.34
357.148	25.43
357.364	5.47
357.58	36.28
357.796	46.94
358.012	55.46
358.228	24.27
358.444	-67.57
358.66	63.6
358.876	11.87
359.092	-25.91
359.308	-8.67
359.524	33.95
359.74	7.8
359.956	-4.02
360.172	4.12
360.388	21.36
360.604	-7.51
360.819	91.5
361.035	31.24
361.251	26.79
361.467	1.02
361.683	61.27
361.898	13.61
362.114	30.27
362.33	17.1
362.546	37.44
362.762	2.37
362.977	23.69
363.193	-9.45
363.409	53.14
363.624	-13.9
363.84	5.67
364.056	16.52
364.271	17.87
364.487	27.95
364.703	-13.9
364.918	-4.99
365.134	12.45
365.35	-1.5
365.565	112.23
365.781	37.05
365.996	21.94
366.212	61.08
366.427	21.94
366.643	0.44
366.858	14.58
367.074	-1.5
367.289	73.09
367.505	127.53
367.72	-32.89
367.936	22.14
368.151	50.04
368.367	45
368.582	23.3
368.798	-4.41
369.013	70.18
369.228	27.37
369.444	14.58
369.659	79.48
369.874	19.42
370.09	85.3
370.305	-40.83
370.52	-8.67
370.736	55.27
370.951	19.42
371.166	82.58
371.381	67.67
371.597	42.67
371.812	-16.03
372.027	0.63
372.242	11.09
372.458	85.68
372.673	15.74
372.888	23.3
373.103	29.89
373.318	104.28
373.533	48.29
373.749	29.11
373.964	-33.08
374.179	72.9
374.394	-19.33
374.609	71.93
374.824	21.94
375.039	63.79
375.254	1.79
375.469	67.67
375.684	47.52
375.899	79.29
376.114	14
376.329	26.01
376.544	55.27
376.759	71.35
376.974	16.9
377.189	14.58
377.404	27.17
377.619	45.58
377.834	-5.76
378.049	-2.08
378.264	-8.28
378.478	58.17
378.693	-9.83
378.908	53.72
379.123	8.96
379.338	64.76
379.553	36.67
379.767	41.32
379.982	36.86
380.197	34.92
380.412	26.01
380.626	51.97
380.841	122.69
381.056	64.95
381.271	74.83
381.485	-0.73
381.7	4.89
381.915	21.36
382.129	21.75
382.344	36.09
382.559	46.74
382.773	53.33
382.988	-9.64
383.202	23.3
383.417	10.9
383.632	110.1
383.846	43.84
384.061	25.04
384.275	-14.68
384.49	67.67
384.704	44.22
384.919	39.77
385.133	21.94
385.348	50.81
385.562	-4.8
385.777	72.32
385.991	38.41
386.206	42.87
386.42	16.71
386.634	77.55
386.849	71.35
387.063	45.19
387.277	-14.87
387.492	16.9
387.706	-11.96
387.92	35.12
388.135	64.95
388.349	39.19
388.563	45.77
388.778	60.3
388.992	76.77
389.206	62.24
389.42	106.42
389.635	51.78
389.849	65.15
390.063	84.52
390.277	61.27
390.491	103.12
390.706	60.11
390.92	73.28
391.134	41.7
391.348	84.91
391.562	5.28
391.776	44.8
391.99	15.74
392.205	87.04
392.419	21.94
392.633	63.21
392.847	74.06
393.061	46.16
393.275	102.15
393.489	42.67
393.703	33.37
393.917	90.92
394.131	23.69
394.345	71.54
394.559	85.49
394.773	72.7
394.986	68.83
395.2	66.7
395.414	96.15
395.628	31.82
395.842	65.73
396.056	39.19
396.27	-5.96
396.484	58.17
396.697	77.35
396.911	92.27
397.125	67.08
397.339	68.44
397.553	68.05
397.766	119.98
397.98	96.34
398.194	101.57
398.408	70.57
398.621	71.73
398.835	83.75
399.049	70.77
399.262	105.06
399.476	102.54
399.69	96.92
399.903	132.38
400.117	82.39
400.331	108.35
400.544	52.55
400.758	182.17
400.971	92.85
401.185	135.48
401.398	54.49
401.612	117.27
401.826	96.92
402.039	112.42
402.253	70.77
402.466	106.8
402.68	85.68
402.893	111.84
403.106	97.5
403.32	104.09
403.533	96.15
403.747	103.32
403.96	111.65
404.174	103.32
404.387	72.32
404.6	109.13
404.814	137.61
405.027	100.22
405.24	106.22
405.454	80.84
405.667	129.86
405.88	45
406.094	121.92
406.307	139.16
406.52	114.17
406.733	61.47
406.947	60.5
407.16	175.78
407.373	147.3
407.586	89.56
407.799	91.88
408.012	121.92
408.226	109.13
408.439	154.66
408.652	57.59
408.865	127.73
409.078	141.1
409.291	134.7
409.504	78.52
409.717	133.73
409.93	133.93
410.143	99.44
410.357	51.78
410.57	73.28
410.783	98.47
410.996	119.01
411.209	111.84
411.421	170.93
411.634	107.77
411.847	87.62
412.06	120.37
412.273	115.13
412.486	131.22
412.699	197.86
412.912	124.63
413.125	141.48
413.338	119.01
413.55	167.06
413.763	112.03
413.976	130.25
414.189	120.56
414.402	103.51
414.615	169
414.827	83.36
415.04	158.34
415.253	131.22
415.466	156.79
415.678	164.54
415.891	121.92
416.104	156.6
416.316	119.01
416.529	126.95
416.742	162.99
416.954	148.85
417.167	130.05
417.38	111.26
417.592	171.13
417.805	76.19
418.017	78.13
418.23	161.83
418.442	107
418.655	130.63
418.868	153.11
419.08	158.92
419.293	169.38
419.505	168.61
419.718	140.52
419.93	185.46
420.142	128.5
420.355	177.13
420.567	167.06
420.78	169.96
420.992	140.13
421.205	210.07
421.417	113.39
421.629	144.58
421.842	93.82
422.054	90.92
422.266	167.25
422.479	189.15
422.691	97.5
422.903	156.21
423.115	109.52
423.328	145.55
423.54	163.38
423.752	131.41
423.964	132.57
424.177	129.86
424.389	138.97
424.601	231.58
424.813	171.13
425.025	171.9
425.238	176.94
425.45	132.18
425.662	153.3
425.874	449.15
426.086	155.82
426.298	162.21
426.51	175.2
426.722	190.31
426.934	118.04
427.146	196.12
427.358	115.91
427.57	195.15
427.782	142.45
427.994	165.51
428.206	149.82
428.418	87.82
428.63	195.15
428.842	224.6
429.054	161.05
429.266	196.31
429.478	151.75
429.69	150.4
429.902	115.52
430.114	204.45
430.325	174.42
430.537	133.15
430.749	138
430.961	103.9
431.173	122.88
431.384	153.88
431.596	83.36
431.808	124.43
432.02	175.2
432.231	190.31
432.443	206.39
432.655	198.83
432.867	133.73
433.078	192.63
433.29	237.78
433.502	206.58
433.713	202.71
433.925	205.03
434.136	227.12
434.348	166.86
434.56	144.78
434.771	264.71
434.983	162.02
435.194	162.6
435.406	194.76
435.617	233.32
435.829	263.35
436.04	225.18
436.252	232.55
436.463	262.77
436.675	242.23
436.886	227.51
437.098	220.34
437.309	270.52
437.521	224.02
437.732	255.6
437.943	201.35
438.155	238.75
438.366	184.88
438.578	262.96
438.789	228.28
439	220.34
439.211	204.84
439.423	249.21
439.634	245.14
439.845	239.52
440.057	223.83
440.268	244.17
440.479	217.43
440.69	233.9
440.902	232.55
441.113	225.76
441.324	210.07
441.535	250.37
441.746	312.18
441.957	211.23
442.168	213.56
442.38	257.34
442.591	252.11
442.802	219.76
443.013	245.53
443.224	267.42
443.435	225.18
443.646	235.06
443.857	256.18
444.068	233.32
444.279	216.66
444.49	311.4
444.701	269.55
444.912	344.34
445.123	260.83
445.334	269.74
445.545	270.13
445.756	256.38
445.967	213.36
446.178	275.17
446.388	299.58
446.599	274.78
446.81	268.58
447.021	240.1
447.232	330.39
447.443	311.98
447.653	242.43
447.864	302.88
448.075	265.87
448.286	301.91
448.496	290.67
448.707	316.24
448.918	275.75
449.129	365.26
449.339	286.99
449.55	306.36
449.761	256.76
449.971	348.99
450.182	277.3
450.393	331.94
450.603	287.76
450.814	348.79
451.024	300.16
451.235	335.81
451.446	368.17
451.656	341.24
451.867	300.55
452.077	319.73
452.288	353.83
452.498	362.74
452.709	297.26
452.919	347.05
453.13	282.73
453.34	325.93
453.55	254.83
453.761	327.67
453.971	293.96
454.182	356.54
454.392	313.92
454.602	363.13
454.813	318.18
455.023	344.53
455.233	272.07
455.444	320.7
455.654	247.66
455.864	298.81
456.075	293.77
456.285	306.56
456.495	322.83
456.705	333.29
456.916	350.92
457.126	386.96
457.336	329.81
457.546	252.11
457.756	306.36
457.967	379.41
458.177	304.62
458.387	358.48
458.597	285.83
458.807	297.06
459.017	305.59
459.227	320.31
459.437	319.34
459.647	342.98
459.857	318.96
460.068	300.55
460.278	341.43
460.488	350.34
460.698	379.99
460.908	329.03
461.117	301.91
461.327	302.29
461.537	341.24
461.747	347.82
461.957	353.83
462.167	403.43
462.377	368.17
462.587	365.84
462.797	369.91
463.007	351.31
463.216	373.01
463.426	416.41
463.636	377.27
463.846	330.19
464.056	340.85
464.265	364.49
464.475	317.21
464.685	356.35
464.895	375.53
465.104	357.71
465.314	391.03
465.524	350.34
465.733	343.37
465.943	413.31
466.153	423.77
466.362	384.25
466.572	384.44
466.782	340.85
466.991	355.57
467.201	425.52
467.41	328.45
467.62	372.24
467.829	381.54
468.039	413.51
468.249	353.44
468.458	357.9
468.668	389.48
468.877	417.77
469.086	415.25
469.296	431.33
469.505	379.21
469.715	477.25
469.924	422.22
470.134	446.83
470.343	453.42
470.552	365.26
470.762	374.95
470.971	373.4
471.18	413.7
471.39	403.43
471.599	354.99
471.808	461.94
472.018	379.79
472.227	466.98
472.436	450.51
472.645	414.47
472.855	411.37
473.064	482.09
473.273	429.78
473.482	466.2
473.691	464.27
473.901	469.3
474.11	439.66
474.319	515.8
474.528	453.61
474.737	490.42
474.946	495.07
475.155	448.77
475.364	509.02
475.573	457.49
475.783	465.82
475.992	501.27
476.201	513.67
476.41	468.34
476.619	445.28
476.828	486.35
477.037	468.72
477.245	472.21
477.454	526.85
477.663	488.1
477.872	491.2
478.081	550.48
478.29	447.99
478.499	582.07
478.708	509.02
478.917	577.42
479.125	518.32
479.334	514.64
479.543	521.81
479.752	544.67
479.961	514.25
480.169	552.23
480.378	496.04
480.587	664.21
480.796	609.58
481.004	526.46
481.213	568.7
481.422	574.9
481.63	570.05
481.839	598.92
482.048	621.01
482.256	568.12
482.465	594.85
482.674	590.98
482.882	593.11
483.091	669.83
483.299	618.1
483.508	653.75
483.716	588.07
483.925	619.46
484.134	588.85
484.342	574.7
484.551	641.74
484.759	613.65
484.967	643.87
485.176	652.98
485.384	633.21
485.593	649.68
485.801	650.85
486.01	602.8
486.218	586.52
486.426	497.59
486.635	562.69
486.843	553
487.051	576.06
487.26	587.3
487.468	647.75
487.676	645.42
487.885	597.56
488.093	627.98
488.301	636.31
488.509	642.71
488.717	681.84
488.926	658.98
489.134	641.16
489.342	666.93
489.55	622.17
489.758	656.08
489.967	660.15
490.175	781.62
490.383	676.42
490.591	760.12
490.799	646.78
491.007	716.72
491.215	690.37
491.423	681.46
491.631	670.61
491.839	660.15
492.047	729.51
492.255	654.53
492.463	672.16
492.671	684.75
492.879	736.09
493.087	712.84
493.295	714.98
493.503	711.68
493.711	728.54
493.919	745.01
494.127	752.18
494.334	753.14
494.542	695.41
494.75	732.61
494.958	738.42
495.166	770
495.374	789.76
495.581	764.57
495.789	757.99
495.997	788.41
496.205	722.73
496.412	744.81
496.62	760.31
496.828	755.47
497.035	713.43
497.243	782.21
497.451	736.48
497.658	764.96
497.866	759.15
498.074	808.75
498.281	745.01
498.489	794.99
498.696	779.88
498.904	709.36
499.112	729.31
499.319	840.33
499.527	783.17
499.734	815.53
499.942	714.39
500.149	795.77
500.357	783.17
500.564	736.87
500.771	763.41
500.979	718.85
501.186	743.07
501.394	799.64
501.601	737.84
501.808	779.88
502.016	745.2
502.223	732.03
502.43	779.88
502.638	787.24
502.845	748.49
503.052	832.58
503.26	769.42
503.467	873.85
503.674	777.17
503.881	829.29
504.089	848.47
504.296	816.31
504.503	738.23
504.71	758.57
504.917	773.68
505.125	842.07
505.332	790.73
505.539	816.11
505.746	906.01
505.953	860.48
506.16	851.37
506.367	876.95
506.574	896.52
506.781	883.92
506.988	838.97
507.195	841.49
507.402	841.88
507.609	864.94
507.816	844.79
508.023	801.58
508.23	801.77
508.437	786.86
508.644	865.9
508.851	857.19
509.058	868.42
509.265	856.02
509.472	871.91
509.679	973.05
509.885	889.74
510.092	872.49
510.299	885.09
510.506	867.65
510.713	857.96
510.92	856.02
511.126	911.05
511.333	905.24
511.54	907.56
511.746	945.53
511.953	925.97
512.16	940.11
512.367	863.19
512.573	906.79
512.78	905.62
512.987	897.29
513.193	888.57
513.4	839.36
513.606	910.08
513.813	893.8
514.02	933.52
514.226	952.51
514.433	943.98
514.639	871.33
514.846	899.81
515.052	915.31
515.259	887.6
515.465	919.19
515.672	916.47
515.878	990.87
516.085	913.76
516.291	966.46
516.497	918.22
516.704	898.26
516.91	855.05
517.117	801.19
517.323	806.04
517.529	852.54
517.736	853.7
517.942	868.04
518.148	840.52
518.354	906.59
518.561	878.5
518.767	882.18
518.973	926.74
519.179	949.6
519.386	912.99
519.592	889.35
519.798	899.81
520.004	989.32
520.21	944.37
520.417	991.07
520.623	1003.27
520.829	992.81
521.035	989.13
521.241	984.67
521.447	997.27
521.653	1092.01
521.859	1020.32
522.065	1044.93
522.271	1118.94
522.477	1059.46
522.683	1083.48
522.889	1070.5
523.095	1060.62
523.301	1043.76
523.507	1012.57
523.713	1046.48
523.919	1047.25
524.125	1060.04
524.331	1070.89
524.537	1124.17
524.742	1110.22
524.948	1125.91
525.154	1114.48
525.36	1203.22
525.566	1124.56
525.772	1173.38
525.977	1092.2
526.183	1124.75
526.389	1167.18
526.595	1097.05
526.8	1077.86
527.006	1038.92
527.212	1018.97
527.417	1016.45
527.623	1008.31
527.829	1085.23
528.034	1089.49
528.24	1099.56
528.446	1061.78
528.651	1170.09
528.857	1144.32
529.062	1200.31
529.268	1158.08
529.473	1190.82
529.679	1154.78
529.884	1254.37
530.09	1217.75
530.295	1243.91
530.501	1199.93
530.706	1183.65
530.912	1172.99
531.117	1192.56
531.323	1181.13
531.528	1253.21
531.733	1216.2
531.939	1197.99
532.144	1245.84
532.35	1226.47
532.555	1268.12
532.76	1214.65
532.966	1213.1
533.171	1240.03
533.376	1203.8
533.581	1145.68
533.787	1174.54
533.992	1245.46
534.197	1269.29
534.402	1221.62
534.607	1246.04
534.813	1299.32
535.018	1251.07
535.223	1222.59
535.428	1271.81
535.633	1313.65
535.838	1286.72
536.043	1291.95
536.249	1360.93
536.454	1278.2
536.659	1333.8
536.864	1273.55
537.069	1259.41
537.274	1304.55
537.479	1294.86
537.684	1294.86
537.889	1260.57
538.094	1362.09
538.299	1298.15
538.504	1293.31
538.708	1282.66
538.913	1349.5
539.118	1279.36
539.323	1312.69
539.528	1299.7
539.733	1286.72
539.938	1303.19
540.142	1330.12
540.347	1307.26
540.552	1253.98
540.757	1298.15
540.962	1259.41
541.166	1212.52
541.371	1260.76
541.576	1269.67
541.781	1175.51
541.985	1340.39
542.19	1311.91
542.395	1352.6
542.599	1377.4
542.804	1335.16
543.008	1378.17
543.213	1286.14
543.418	1267.74
543.622	1359.38
543.827	1257.66
544.031	1388.25
544.236	1395.03
544.44	1347.17
544.645	1416.53
544.849	1346.2
545.054	1382.24
545.258	1444.82
545.463	1433.97
545.667	1344.27
545.872	1367.71
546.076	1399.1
546.281	1340.59
546.485	1357.64
546.689	1381.47
546.894	1377.2
547.098	1350.27
547.302	1351.24
547.507	1344.65
547.711	1383.21
547.915	1433.78
548.119	1337.1
548.324	1337.87
548.528	1414.02
548.732	1356.28
548.936	1383.4
549.141	1415.95
549.345	1372.17
549.549	1392.12
549.753	1363.64
549.957	1432.42
550.161	1445.02
550.366	1364.8
550.57	1349.69
550.774	1382.82
550.978	1381.08
551.182	1399.48
551.386	1375.46
551.59	1391.93
551.794	1388.44
551.998	1398.52
552.202	1371
552.406	1296.22
552.61	1389.8
552.814	1387.28
553.018	1433.39
553.222	1359.19
553.426	1370.04
553.63	1488.8
553.833	1369.84
554.037	1380.5
554.241	1401.62
554.445	1375.85
554.649	1396
554.853	1351.24
555.056	1424.67
555.26	1395.22
555.464	1388.44
555.668	1394.83
555.871	1413.24
556.075	1437.65
556.279	1398.32
556.483	1333.61
556.686	1381.08
556.89	1372.17
557.094	1388.25
557.297	1332.25
557.501	1411.3
557.704	1326.83
557.908	1420.41
558.112	1322.18
558.315	1410.33
558.519	1353.18
558.722	1366.74
558.926	1323.92
559.129	1276.46
559.333	1262.51
559.536	1327.22
559.74	1296.99
559.943	1265.22
560.147	1269.87
560.35	1307.26
560.553	1286.14
560.757	1264.06
560.96	1335.94
561.164	1276.46
561.367	1387.86
561.57	1291.18
561.774	1309.78
561.977	1282.66
562.18	1272
562.384	1356.86
562.587	1268.32
562.79	1273.94
562.993	1274.71
563.197	1329.15
563.4	1322.57
563.603	1339.23
563.806	1375.65
564.009	1255.72
564.212	1309.39
564.416	1236.16
564.619	1310.17
564.822	1218.91
565.025	1289.63
565.228	1278.78
565.431	1246.23
565.634	1167.18
565.837	1217.36
566.04	1189.46
566.243	1210.58
566.446	1122.43
566.649	1274.32
566.852	1188.3
567.055	1206.71
567.258	1238.09
567.461	1272.97
567.664	1244.29
567.867	1141.03
568.07	1221.62
568.273	1228.02
568.475	1261.15
568.678	1179.97
568.881	1176.48
569.084	1166.99
569.287	1103.05
569.489	1126.88
569.692	1179.97
569.895	1199.15
570.098	1118.36
570.3	1114.68
570.503	1089.1
570.706	1116.81
570.909	1096.27
571.111	1074.96
571.314	1074.38
571.516	1092.98
571.719	1119.33
571.922	1053.45
572.124	1086.2
572.327	1116.61
572.529	1061.2
572.732	1062.95
572.935	1130.76
573.137	1169.31
573.34	1074.18
573.542	1143.54
573.745	1081.35
573.947	1114.09
574.15	1102.66
574.352	1079.61
574.554	1139.28
574.757	1084.06
574.959	1065.27
575.162	1057.13
575.364	1056.55
575.566	1156.91
575.769	1042.99
575.971	1072.83
576.173	1003.47
576.376	1053.26
576.578	1110.03
576.78	1102.86
576.982	1005.98
577.185	1041.25
577.387	987.19
577.589	997.46
577.791	1057.52
577.993	1073.8
578.196	1030.4
578.398	1047.45
578.6	1059.26
578.802	999.98
579.004	1000.56
579.206	1013.73
579.408	1058.3
579.61	1003.66
579.812	1035.43
580.014	997.27
580.216	991.45
580.418	1032.33
580.62	1000.95
580.822	929.84
581.024	1009.08
581.226	1044.54
581.428	973.05
581.63	1086
581.832	1015.48
582.034	1042.41
582.236	1011.8
582.438	1049.58
582.64	1064.5
582.841	1109.45
583.043	1117.78
583.245	1068.56
583.447	1043.96
583.649	1027.49
583.85	1049.19
584.052	1074.96
584.254	1018.38
584.456	1070.89
584.657	1005.02
584.859	1005.21
585.061	1004.24
585.262	999.4
585.464	942.05
585.666	1038.73
585.867	968.59
586.069	1067.79
586.27	1008.7
586.472	1004.82
586.674	970.14
586.875	990.1
587.077	996.68
587.278	1003.66
587.48	1003.27
587.681	1106.93
587.883	1002.5
588.084	952.12
588.285	990.87
588.487	977.31
588.688	977.12
588.89	941.27
589.091	875.59
589.292	933.91
589.494	863
589.695	838.39
589.896	796.74
590.098	809.14
590.299	874.04
590.5	852.34
590.702	862.8
590.903	877.14
591.104	916.09
591.305	902.91
591.507	963.75
591.708	934.1
591.909	904.85
592.11	963.17
592.311	929.65
592.512	898.65
592.714	864.74
592.915	886.64
593.116	874.04
593.317	921.12
593.518	875.98
593.719	899.23
593.92	922.29
594.121	961.03
594.322	897.49
594.523	936.24
594.724	872.3
594.925	897.29
595.126	927.9
595.327	923.06
595.528	895.35
595.729	925.58
595.929	909.69
596.13	911.24
596.331	930.04
596.532	896.9
596.733	994.94
596.934	928.87
597.135	936.24
597.335	952.12
597.536	867.07
597.737	910.85
597.938	867.07
598.138	932.36
598.339	908.34
598.54	917.05
598.74	906.98
598.941	901.36
599.142	938.17
599.342	901.55
599.543	891.09
599.744	897.87
599.944	899.04
600.145	907.17
600.345	900.39
600.546	959.1
600.746	940.69
600.947	988.55
601.147	934.3
601.348	956.77
601.548	892.25
601.749	916.67
601.949	853.5
602.15	852.73
602.35	894.58
602.551	941.85
602.751	888.77
602.951	837.81
603.152	820.18
603.352	936.24
603.552	870.17
603.753	895.16
603.953	940.3
604.153	887.02
604.354	878.3
604.554	908.53
604.754	875.2
604.954	860.67
605.155	913.18
605.355	862.42
605.555	935.07
605.755	946.89
605.955	879.47
606.155	921.7
606.356	884.12
606.556	904.85
606.756	873.46
606.956	848.27
607.156	960.26
607.356	849.63
607.556	881.6
607.756	879.08
607.956	926.74
608.156	884.89
608.356	858.93
608.556	908.53
608.756	850.02
608.956	826.96
609.156	901.17
609.356	829.48
609.556	822.31
609.755	885.09
609.955	838.2
610.155	871.14
610.355	880.44
610.555	843.43
610.755	861.45
610.954	790.73
611.154	846.92
611.354	880.63
611.554	799.45
611.753	825.99
611.953	805.26
612.153	840.72
612.352	871.52
612.552	792.67
612.752	791.7
612.951	833.16
613.151	840.52
613.351	819.02
613.55	821.92
613.75	837.04
613.949	804.49
614.149	861.64
614.348	834.52
614.548	801.39
614.747	771.94
614.947	776.78
615.146	747.53
615.346	852.73
615.545	823.86
615.745	803.91
615.944	821.34
616.144	840.14
616.343	815.53
616.542	792.28
616.742	795.77
616.941	814.37
617.14	756.63
617.34	764.58
617.539	777.17
617.738	779.49
617.938	855.64
618.137	784.72
618.336	729.51
618.535	809.33
618.734	788.79
618.934	790.92
619.133	776.01
619.332	797.51
619.531	762.25
619.73	781.82
619.929	812.82
620.128	798.09
620.328	838.59
620.527	784.34
620.726	794.41
620.925	778.52
621.124	788.79
621.323	794.41
621.522	742.88
621.721	721.37
621.92	726.99
622.119	806.81
622.318	757.21
622.517	750.43
622.715	724.28
622.914	699.67
623.113	755.08
623.312	720.98
623.511	778.91
623.71	757.41
623.909	734.74
624.107	804.87
624.306	696.96
624.505	674.48
624.704	729.51
624.902	698.89
625.101	765.93
625.3	762.64
625.499	696.18
625.697	703.35
625.896	700.64
626.095	733.58
626.293	693.28
626.492	720.01
626.69	716.72
626.889	657.05
627.088	746.36
627.286	674.48
627.485	706.06
627.683	695.02
627.882	740.74
628.08	661.5
628.279	679.13
628.477	757.21
628.676	657.24
628.874	701.61
629.073	648.13
629.271	646
629.469	697.54
629.668	682.23
629.866	654.91
630.065	682.62
630.263	691.73
630.461	685.33
630.66	696.38
630.858	713.43
631.056	715.17
631.254	734.54
631.453	670.03
631.651	709.16
631.849	710.91
632.047	690.37
632.245	697.15
632.444	664.6
632.642	702.19
632.84	700.06
633.038	678.94
633.236	650.26
633.434	663.63
633.632	664.99
633.83	648.91
634.028	705.29
634.227	701.8
634.425	736.87
634.623	704.32
634.821	691.92
635.019	687.27
635.216	656.08
635.414	697.54
635.612	686.88
635.81	656.46
636.008	729.51
636.206	694.83
636.404	705.48
636.602	644.45
636.8	689.21
636.997	722.92
637.195	734.54
637.393	702.19
637.591	732.41
637.789	703.74
637.986	704.13
638.184	691.53
638.382	729.89
638.58	718.85
638.777	757.99
638.975	674.1
639.173	678.74
639.37	720.79
639.568	702.38
639.765	680.29
639.963	702.96
640.161	716.91
640.358	696.57
640.556	657.05
640.753	600.08
640.951	652.78
641.148	714.39
641.346	661.5
641.543	671.77
641.741	693.86
641.938	619.85
642.136	655.11
642.333	629.34
642.531	714.01
642.728	706.26
642.925	666.15
643.123	679.91
643.32	664.99
643.517	674.48
643.715	705.29
643.912	665.38
644.109	660.34
644.306	680.1
644.504	627.21
644.701	692.89
644.898	662.47
645.095	652.78
645.293	666.93
645.49	667.31
645.687	680.29
645.884	699.48
646.081	636.7
646.278	607.06
646.475	658.4
646.672	617.91
646.87	651.81
647.067	645.23
647.264	646
647.461	615
647.658	589.62
647.855	647.75
648.052	621.01
648.249	530.92
648.446	613.26
648.642	584.78
648.839	569.47
649.036	600.66
649.233	524.13
649.43	565.79
649.627	541.77
649.824	587.68
650.021	560.75
650.217	566.95
650.414	600.66
650.611	599.5
650.808	582.45
651.004	607.06
651.201	611.71
651.398	668.09
651.595	603.57
651.791	595.63
651.988	620.62
652.185	566.76
652.381	598.53
652.578	538.08
652.775	600.28
652.971	561.33
653.168	601.25
653.364	636.9
653.561	515.61
653.757	588.85
653.954	606.09
654.15	565.79
654.347	637.48
654.543	590.2
654.74	523.36
654.936	511.54
655.133	595.24
655.329	562.88
655.525	574.12
655.722	586.72
655.918	573.15
656.115	535.37
656.311	479.57
656.507	470.08
656.704	466.79
656.9	492.94
657.096	475.7
657.292	484.8
657.489	565.02
657.685	524.91
657.881	509.6
658.077	530.92
658.273	532.27
658.47	610.55
658.666	551.65
658.862	565.4
659.058	526.07
659.254	584
659.45	548.35
659.646	565.79
659.842	544.28
660.038	591.75
660.234	526.07
660.43	556.88
660.626	614.42
660.822	593.3
661.018	558.82
661.214	546.61
661.41	511.73
661.606	570.25
661.802	587.49
661.998	559.98
662.194	508.83
662.39	554.17
662.586	575.09
662.781	533.82
662.977	559.78
663.173	573.35
663.369	550.29
663.564	553.2
663.76	607.25
663.956	528.78
664.152	601.25
664.347	492.55
664.543	567.92
664.739	531.11
664.934	477.25
665.13	493.91
665.326	573.54
665.521	559.59
665.717	550.1
665.912	490.42
666.108	451.29
666.304	529.56
666.499	530.33
666.695	451.09
666.89	511.54
667.086	544.28
667.281	526.46
667.477	578.77
667.672	526.85
667.867	534.79
668.063	551.65
668.258	512.51
668.454	496.82
668.649	560.75
668.844	518.9
669.04	532.08
669.235	503.98
669.43	515.8
669.626	492.36
669.821	484.61
670.016	487.9
670.211	506.7
670.407	493.14
670.602	508.44
670.797	512.7
670.992	531.5
671.187	481.9
671.382	558.04
671.578	506.7
671.773	522.97
671.968	481.32
672.163	506.31
672.358	529.37
672.553	509.22
672.748	494.88
672.943	571.41
673.138	509.8
673.333	529.75
673.528	478.8
673.723	494.49
673.918	511.73
674.113	471.24
674.308	597.95
674.503	530.92
674.698	534.4
674.892	515.03
675.087	509.02
675.282	509.22
675.477	476.47
675.672	512.32
675.867	483.64
676.061	453.42
676.256	448.77
676.451	485.58
676.646	488.49
676.84	458.45
677.035	440.44
677.23	431.91
677.424	514.83
677.619	524.72
677.814	522.78
678.008	537.7
678.203	438.89
678.397	477.25
678.592	479.38
678.787	524.13
678.981	478.6
679.176	504.57
679.37	497.79
679.565	455.35
679.759	459.81
679.954	483.45
680.148	524.72
680.342	537.31
680.537	509.6
680.731	480.15
680.926	492.36
681.12	535.18
681.314	460.97
681.509	489.07
681.703	482.29
681.897	500.5
682.092	467.95
682.286	472.79
682.48	528.78
682.674	533.82
682.869	476.47
683.063	468.92
683.257	558.62
683.451	458.07
683.645	510.38
683.839	480.15
684.034	469.89
684.228	524.33
684.422	427.45
684.616	444.12
684.81	484.61
685.004	484.03
685.198	478.22
685.392	510.38
685.586	472.6
685.78	474.92
685.974	511.73
686.168	509.22
686.362	535.76
686.556	433.46
686.75	426.68
686.944	404.21
687.138	465.62
687.331	347.44
687.525	364.68
687.719	308.69
687.913	377.08
688.107	416.8
688.301	344.34
688.494	419.7
688.688	365.46
688.882	314.5
689.076	362.16
689.269	374.76
689.463	484.03
689.657	391.61
689.85	362.94
690.044	375.72
690.238	407.11
690.431	404.79
690.625	387.93
690.818	396.46
691.012	444.12
691.205	457.1
691.399	389.48
691.593	421.45
691.786	494.88
691.98	449.93
692.173	493.14
692.366	464.85
692.56	445.28
692.753	495.65
692.947	450.51
693.14	518.9
693.333	505.15
693.527	450.32
693.72	498.95
693.914	445.28
694.107	457.49
694.3	471.05
694.493	447.99
694.687	516.19
694.88	454.39
695.073	513.28
695.266	519.87
695.46	503.98
695.653	513.09
695.846	548.93
696.039	476.09
696.232	475.89
696.425	535.57
696.618	538.47
696.812	544.48
697.005	599.31
697.198	638.64
697.391	558.04
697.584	570.25
697.777	628.37
697.97	609.38
698.163	639.61
698.356	596.6
698.549	685.91
698.742	636.7
698.935	591.95
699.127	644.06
699.32	588.85
699.513	584.58
699.706	642.13
699.899	644.26
700.092	609.19
700.285	668.09
700.477	570.83
700.67	659.76
700.863	665.38
701.056	737.84
701.248	706.26
701.441	736.48
701.634	655.69
701.826	757.6
702.019	659.37
702.212	734.16
702.404	668.48
702.597	700.64
702.79	723.31
702.982	740.74
703.175	756.83
703.367	752.56
703.56	749.27
703.752	807.59
703.945	763.41
704.137	802.16
704.33	815.53
704.522	819.21
704.715	845.76
704.907	831.81
705.1	903.69
705.292	887.41
705.484	862.61
705.677	875.59
705.869	896.71
706.061	882.95
706.254	956.38
706.446	881.4
706.638	878.89
706.831	967.43
707.023	946.31
707.215	1027.88
707.407	980.02
707.599	992.23
707.792	1028.07
707.984	1007.92
708.176	1043.57
708.368	1001.92
708.56	1065.08
708.752	1026.52
708.944	1026.33
709.136	1066.43
709.329	1033.5
709.521	1150.71
709.713	1113.13
709.905	1117.39
710.097	1154.01
710.289	1095.69
710.481	1113.13
710.672	1142.19
710.864	1148.78
711.056	1204.96
711.248	1179
711.44	1192.18
711.632	1180.55
711.824	1194.5
712.016	1277.81
712.207	1229.57
712.399	1252.24
712.591	1285.17
712.783	1296.02
712.975	1284.98
713.166	1263.28
713.358	1286.72
713.55	1344.27
713.741	1308.23
713.933	1312.69
714.125	1332.84
714.316	1319.66
714.508	1387.28
714.7	1372.17
714.891	1352.99
715.083	1445.4
715.274	1371.39
715.466	1387.28
715.657	1420.22
715.849	1336.9
716.04	1400.45
716.232	1305.9
716.423	1393.67
716.615	1327.22
716.806	1355.5
716.998	1304.16
717.189	1287.89
717.381	1204.57
717.572	1197.41
717.763	1243.91
717.955	1213.68
718.146	1184.62
718.337	1160.79
718.528	1146.84
718.72	1101.89
718.911	1147.61
719.102	1114.48
719.293	1200.12
719.485	1136.57
719.676	1153.43
719.867	1079.61
720.058	1132.31
720.249	1107.9
720.44	1174.93
720.632	1206.12
720.823	1235.77
721.014	1334.19
721.205	1309.39
721.396	1370.81
721.587	1447.53
721.778	1478.92
721.969	1497.91
722.16	1551.38
722.351	1500.43
722.542	1613.38
722.733	1641.67
722.924	1534.72
723.115	1642.25
723.305	1625.01
723.496	1645.16
723.687	1518.06
723.878	1531.23
724.069	1547.7
724.26	1570.18
724.45	1493.26
724.641	1538.01
724.832	1550.61
725.023	1579.86
725.213	1530.65
725.404	1505.66
725.595	1528.52
725.785	1538.21
725.976	1606.41
726.167	1544.99
726.357	1564.75
726.548	1654.46
726.739	1578.31
726.929	1637.99
727.12	1704.83
727.31	1715.29
727.501	1687.97
727.691	1696.89
727.882	1665.69
728.072	1724.79
728.263	1714.52
728.453	1745.9
728.644	1768.57
728.834	1766.64
729.024	1718.39
729.215	1735.44
729.405	1753.85
729.596	1854.6
729.786	1882.69
729.976	1847.04
730.167	1842.58
730.357	1805.58
730.547	1852.08
730.737	1880.95
730.928	1908.46
731.118	1952.25
731.308	1904.58
731.498	1930.35
731.688	1978.98
731.879	2005.14
732.069	2033.62
732.259	2038.27
732.449	2089.61
732.639	2144.44
732.829	2164.98
733.019	2188.04
733.209	2266.89
733.399	2264.76
733.589	2313.39
733.779	2340.71
733.969	2330.05
734.159	2406.58
734.349	2434.29
734.539	2454.83
734.729	2484.28
734.919	2522.25
735.109	2554.61
735.299	2516.63
735.488	2525.35
735.678	2483.69
735.868	2474.2
736.058	2534.84
736.248	2501.13
736.437	2527.29
736.627	2468.39
736.817	2588.51
737.007	2564.87
737.196	2595.87
737.386	2593.16
737.576	2531.74
737.765	2625.52
737.955	2558.48
738.144	2739.83
738.334	2640.24
738.524	2589.48
738.713	2672.99
738.903	2691
739.092	2711.73
739.282	2706.89
739.471	2697.2
739.661	2714.45
739.85	2720.26
740.04	2760.37
740.229	2811.51
740.419	2772.96
740.608	2788.07
740.797	2769.28
740.987	2867.31
741.176	2840.77
741.365	2841.93
741.555	2783.81
741.744	2886.69
741.933	2847.94
742.123	2899.48
742.312	2871.77
742.501	2887.27
742.69	2943.46
742.88	2868.86
743.069	2954.69
743.258	2933.19
743.447	2968.06
743.636	2979.49
743.825	2903.93
744.014	2956.05
744.204	2954.31
744.393	2910.71
744.582	3025.22
744.771	3042.07
744.96	3020.18
745.149	3020.76
745.338	2993.83
745.527	3081.99
745.716	2997.12
745.905	2959.92
746.094	3026.96
746.283	3068.81
746.471	3063.39
746.66	3121.51
746.849	3098.65
747.038	3104.85
747.227	3047.69
747.416	3095.94
747.604	3050.4
747.793	3072.49
747.982	3119.19
748.171	3108.14
748.359	3114.73
748.548	3117.64
748.737	3087.41
748.926	3109.5
749.114	2997.51
749.303	3054.86
749.491	3036.26
749.68	3017.66
749.869	3103.88
750.057	3052.15
750.246	3031.81
750.434	3049.63
750.623	3027.93
750.811	3029.09
751	3056.6
751.188	3014.76
751.377	3055.25
751.565	3086.83
751.754	3034.71
751.942	3000.03
752.131	3079.08
752.319	3013.21
752.507	2985.69
752.696	3060.09
752.884	3076.56
753.072	3002.94
753.261	3048.08
753.449	3044.59
753.637	3028.32
753.825	3098.07
754.014	3035.87
754.202	3005.84
754.39	3066.87
754.578	3088.77
754.766	3009.91
754.955	3015.92
755.143	3094.58
755.331	2987.24
755.519	3039.36
755.707	3004.68
755.895	2995.19
756.083	3009.14
756.271	2972.91
756.459	2978.14
756.647	3017.08
756.835	2946.94
757.023	2963.41
757.211	2952.56
757.399	2939.97
757.587	2947.14
757.775	2931.25
757.963	2938.42
758.151	2953.72
758.339	2879.13
758.526	2889.79
758.714	2913.04
758.902	2814.23
759.09	2751.84
759.278	2599.36
759.465	2372.87
759.653	2052.8
759.841	1866.61
760.028	1597.49
760.216	1384.95
760.404	1314.04
760.591	1069.92
760.779	883.73
760.967	778.52
761.154	648.33
761.342	710.13
761.529	692.89
761.717	752.95
761.905	720.4
762.092	803.71
762.28	724.28
762.467	718.27
762.655	679.13
762.842	695.21
763.029	708.19
763.217	714.59
763.404	718.27
763.592	774.65
763.779	726.21
763.966	753.34
764.154	790.15
764.341	834.52
764.528	849.82
764.716	875.2
764.903	941.47
765.09	994.75
765.277	1060.62
765.465	1191.59
765.652	1202.44
765.839	1293.89
766.026	1373.14
766.213	1439.98
766.4	1540.73
766.588	1707.16
766.775	1698.24
766.962	1793.37
767.149	1840.26
767.336	2017.54
767.523	1995.06
767.71	2088.06
767.897	2164.98
768.084	2251.2
768.271	2280.84
768.458	2324.43
768.645	2390.5
768.832	2389.15
769.019	2372.68
769.206	2425.38
769.392	2481.37
769.579	2567.01
769.766	2532.32
769.953	2553.25
770.14	2547.24
770.327	2561.39
770.513	2595.87
770.7	2676.47
770.887	2592.97
771.073	2616.41
771.26	2615.05
771.447	2566.04
771.634	2594.91
771.82	2706.12
772.007	2594.91
772.193	2680.74
772.38	2643.34
772.567	2628.23
772.753	2613.5
772.94	2653.03
773.126	2675.12
773.313	2685.39
773.499	2624.55
773.686	2717.35
773.872	2633.46
774.059	2590.26
774.245	2596.65
774.432	2620.67
774.618	2541.24
774.804	2633.27
774.991	2566.23
775.177	2633.46
775.363	2601.88
775.55	2621.25
775.736	2530.58
775.922	2592
776.109	2605.37
776.295	2599.94
776.481	2572.62
776.667	2627.26
776.853	2575.14
777.04	2569.91
777.226	2554.41
777.412	2678.6
777.598	2550.34
777.784	2518.76
777.97	2555.96
778.156	2542.59
778.342	2530.19
778.528	2533.1
778.715	2487.57
778.901	2486.79
779.087	2540.27
779.272	2476.53
779.458	2461.41
779.644	2522.64
779.83	2449.59
780.016	2580.96
780.202	2449.4
780.388	2510.63
780.574	2445.91
780.76	2439.91
780.946	2482.73
781.131	2480.4
781.317	2460.25
781.503	2411.81
781.689	2432.54
781.874	2537.36
782.06	2466.64
782.246	2440.49
782.432	2420.92
782.617	2440.88
782.803	2478.85
782.989	2376.16
783.174	2396.51
783.36	2341.87
783.545	2372.87
783.731	2387.98
783.916	2320.56
784.102	2415.5
784.288	2365.7
784.473	2377.13
784.659	2307
784.844	2370.55
785.029	2313.39
785.215	2332.77
785.4	2286.85
785.586	2378.1
785.771	2291.5
785.956	2335.09
786.142	2344.97
786.327	2270.96
786.512	2297.31
786.698	2290.33
786.883	2229.3
787.068	2272.9
787.254	2263.6
787.439	2234.15
787.624	2199.66
787.809	2207.6
787.994	2211.48
788.18	2306.03
788.365	2203.15
788.55	2176.6
788.735	2204.89
788.92	2202.76
789.105	2204.7
789.29	2212.06
789.475	2158.78
789.66	2154.91
789.845	2119.84
790.03	2101.24
790.215	2163.62
790.4	2179.32
790.585	2204.31
790.77	2159.94
790.955	2084.19
791.14	2130.11
791.325	2187.84
791.51	2053.19
791.695	2107.63
791.879	2117.51
792.064	2053.96
792.249	2149.29
792.434	2090
792.618	2093.29
792.803	2135.92
792.988	2146.77
793.173	2092.32
793.357	2145.41
793.542	2051.25
793.727	2122.16
793.911	2141.34
794.096	2126.81
794.281	2167.5
794.465	2222.52
794.65	2123.52
794.834	2143.47
795.019	2150.84
795.203	2141.92
795.388	2156.46
795.572	2187.84
795.757	2162.27
795.941	2193.46
796.126	2152.97
796.31	2105.89
796.494	2148.32
796.679	2119.45
796.863	2122.16
797.048	2181.84
797.232	2177.57
797.416	2160.91
797.601	2133.4
797.785	2212.64
797.969	2148.12
798.153	2147.16
798.338	2108.02
798.522	2191.52
798.706	2186.49
798.89	2173.89
799.074	2268.44
799.258	2227.56
799.443	2172.92
799.627	2177.96
799.811	2203.54
799.995	2162.07
800.179	2164.98
800.363	2136.11
800.547	2165.95
800.731	2194.62
800.915	2123.91
801.099	2116.35
801.283	2138.24
801.467	2133.59
801.651	2131.66
801.835	2183.39
802.019	2159.56
802.202	2132.62
802.386	2106.86
802.57	2118.87
802.754	2099.69
802.938	2122.36
803.121	2105.11
803.305	2166.14
803.489	2158.59
803.673	2184.16
803.856	2190.55
804.04	2121.19
804.224	2130.69
804.407	2129.33
804.591	2099.11
804.775	2106.66
804.958	2141.92
805.142	2217.68
805.326	2136.11
805.509	2154.13
805.693	2155.1
805.876	2176.02
806.06	2166.92
806.243	2182.22
806.427	2172.54
806.61	2227.75
806.794	2172.73
806.977	2192.49
807.16	2177.19
807.344	2183
807.527	2148.9
807.71	2161.49
807.894	2153.74
808.077	2201.21
808.26	2097.94
808.444	2092.52
808.627	2168.47
808.81	2124.29
808.993	2064.04
809.177	2056.09
809.36	2093.29
809.543	2103.17
809.726	2019.09
809.909	2047.18
810.092	2000.29
810.276	2006.11
810.459	2002.23
810.642	2008.04
810.825	1993.13
811.008	2011.34
811.191	1885.79
811.374	1896.25
811.557	1907.88
811.74	2013.28
811.923	1867.97
812.106	1878.23
812.289	1860.8
812.472	1881.72
812.654	1879.2
812.837	1848.4
813.02	1787.37
813.203	1767.02
813.386	1689.52
813.569	1674.8
813.751	1645.54
813.934	1637.21
814.117	1626.94
814.3	1586.26
814.482	1572.5
814.665	1511.66
814.848	1511.47
815.03	1411.88
815.213	1473.5
815.396	1438.04
815.578	1446.57
815.761	1367.52
815.943	1478.34
816.126	1394.83
816.309	1374.3
816.491	1308.04
816.674	1270.06
816.856	1348.14
817.039	1300.29
817.221	1374.69
817.403	1318.3
817.586	1356.09
817.768	1364.61
817.951	1273.74
818.133	1266.57
818.315	1305.52
818.498	1351.24
818.68	1368.49
818.862	1353.18
819.045	1362.29
819.227	1396
819.409	1328.57
819.591	1356.47
819.774	1334.39
819.956	1331.48
820.138	1402.97
820.32	1370.81
820.502	1425.45
820.684	1478.73
820.866	1466.13
821.048	1513.6
821.231	1527.55
821.413	1517.86
821.595	1502.75
821.777	1504.3
821.959	1510.89
822.141	1524.45
822.323	1429.71
822.505	1417.5
822.686	1323.34
822.868	1283.82
823.05	1192.95
823.232	1214.07
823.414	1121.26
823.596	1205.93
823.778	1175.71
823.96	1207.29
824.141	1210.19
824.323	1240.42
824.505	1292.92
824.687	1366.16
824.868	1361.7
825.05	1450.25
825.232	1457.42
825.413	1564.94
825.595	1492.29
825.777	1424.87
825.958	1484.93
826.14	1481.05
826.321	1467.3
826.503	1499.26
826.685	1493.06
826.866	1508.37
827.048	1503.33
827.229	1444.63
827.411	1409.95
827.592	1372.75
827.773	1394.64
827.955	1336.13
828.136	1352.02
828.318	1275.68
828.499	1351.63
828.68	1284.4
828.862	1346.2
829.043	1348.92
829.224	1315.79
829.406	1289.82
829.587	1285.95
829.768	1298.15
829.949	1347.95
830.131	1311.33
830.312	1367.32
830.493	1352.79
830.674	1322.57
830.855	1320.63
831.036	1330.12
831.218	1341.55
831.399	1394.64
831.58	1317.92
831.761	1333.03
831.942	1383.21
832.123	1340.97
832.304	1303.97
832.485	1276.84
832.666	1319.27
832.847	1350.47
833.028	1309.78
833.209	1317.53
833.389	1308.42
833.57	1282.46
833.751	1287.11
833.932	1383.79
834.113	1344.07
834.294	1289.44
834.475	1357.64
834.655	1368.68
834.836	1396.77
835.017	1391.35
835.198	1319.85
835.378	1379.14
835.559	1370.42
835.74	1365.19
835.92	1332.45
836.101	1326.25
836.281	1360.54
836.462	1358.8
836.643	1418.28
836.823	1407.82
837.004	1408.2
837.184	1454.9
837.365	1423.51
837.545	1424.67
837.726	1399.48
837.906	1439.01
838.087	1397.74
838.267	1396.97
838.448	1362.67
838.628	1356.09
838.808	1407.43
838.989	1450.83
839.169	1354.34
839.349	1392.51
839.53	1394.64
839.71	1425.64
839.89	1381.27
840.07	1422.54
840.251	1345.82
840.431	1445.4
840.611	1405.68
840.791	1365.19
840.971	1420.8
841.151	1377.78
841.332	1356.86
841.512	1427
841.692	1350.47
841.872	1435.33
842.052	1391.35
842.232	1385.53
842.412	1316.37
842.592	1363.06
842.772	1365.58
842.952	1390.96
843.132	1342.91
843.312	1362.67
843.492	1309.78
843.672	1365.19
843.851	1303.97
844.031	1340.78
844.211	1367.13
844.391	1333.61
844.571	1356.09
844.751	1379.92
844.93	1342.91
845.11	1322.18
845.29	1378.56
845.47	1361.32
845.649	1341.75
845.829	1373.91
846.009	1322.18
846.188	1380.11
846.368	1350.85
846.547	1333.8
846.727	1383.98
846.907	1302.22
847.086	1314.82
847.266	1371.59
847.445	1335.16
847.625	1328.96
847.804	1316.95
847.984	1322.57
848.163	1300.48
848.343	1306.1
848.522	1346.4
848.701	1276.46
848.881	1308.62
849.06	1311.52
849.239	1309.2
849.419	1309.2
849.598	1270.84
849.777	1268.71
849.957	1217.56
850.136	1168.73
850.315	1193.73
850.494	1180.74
850.674	1182.68
850.853	1255.72
851.032	1247.39
851.211	1297.38
851.39	1211.36
851.569	1200.7
851.748	1164.08
851.927	1226.27
852.107	1191.01
852.286	1181.13
852.465	1217.75
852.644	1252.43
852.823	1220.46
853.002	1221.82
853.181	1208.84
853.359	1234.02
853.538	1157.11
853.717	1226.27
853.896	1140.25
854.075	1079.8
854.254	1091.43
854.433	1001.72
854.611	1050.93
854.79	1015.28
854.969	1045.9
855.148	1088.52
855.327	1015.48
855.505	1122.81
855.684	1056.75
855.863	1133.28
856.041	1086.2
856.22	1105.57
856.399	1090.07
856.577	1196.44
856.756	1152.65
856.934	1259.99
857.113	1254.95
857.291	1191.21
857.47	1153.62
857.648	1133.47
857.827	1165.63
858.005	1197.21
858.184	1149.36
858.362	1238.29
858.541	1177.06
858.719	1151.88
858.898	1128.04
859.076	1130.37
859.254	1213.1
859.433	1154.98
859.611	1115.26
859.789	1057.13
859.967	1192.18
860.146	1255.14
860.324	1097.24
860.502	1097.63
860.68	1070.5
860.859	1101.89
861.037	1102.08
861.215	1132.5
861.393	1164.66
861.571	1111.58
861.749	1090.07
861.927	1109.64
862.105	1131.14
862.283	1086.78
862.461	1080
862.639	1048.41
862.817	1094.14
862.995	1126.69
863.173	1073.41
863.351	1087.55
863.529	1103.25
863.707	1109.25
863.885	1094.33
864.063	1059.46
864.241	1034.85
864.418	1144.71
864.596	1065.08
864.774	1016.45
864.952	1030.2
865.129	1089.3
865.307	1026.91
865.485	1000.75
865.663	1058.49
865.84	1007.15
866.018	1015.48
866.196	925.58
866.373	929.07
866.551	904.65
866.728	900.59
866.906	932.94
867.084	926.35
867.261	988.55
867.439	983.32
867.616	1013.93
867.794	978.28
867.971	978.86
868.149	986.22
868.326	1034.27
868.503	1024
868.681	994.17
868.858	977.12
869.035	989.52
869.213	1009.08
869.39	974.6
869.567	1051.9
869.745	999.78
869.922	998.62
870.099	987.38
870.276	998.82
870.454	1014.9
870.631	1018.19
870.808	970.33
870.985	1024.2
871.162	1045.9
871.339	974.98
871.517	954.06
871.694	939.92
871.871	991.84
872.048	966.27
872.225	968.2
872.402	977.5
872.579	927.13
872.756	967.43
872.933	930.42
873.11	970.14
873.287	982.93
873.463	946.7
873.64	952.9
873.817	982.73
873.994	946.12
874.171	917.83
874.348	954.06
874.524	850.79
874.701	942.24
874.878	842.07
875.055	907.37
875.231	929.26
875.408	930.04
875.585	873.27
875.762	929.45
875.938	890.7
876.115	923.06
876.291	900.2
876.468	890.12
876.645	872.69
876.821	877.14
876.998	870.36
877.174	913.76
877.351	882.76
877.527	871.72
877.704	898.84
877.88	892.25
878.057	839.94
878.233	918.8
878.409	873.46
878.586	902.52
878.762	876.56
878.938	834.32
879.115	761.28
879.291	841.69
879.467	833.16
879.644	818.63
879.82	862.42
879.996	861.25
880.172	784.92
880.349	866.29
880.525	876.17
880.701	794.99
880.877	802.55
881.053	842.85
881.229	843.04
881.405	874.82
881.581	782.21
881.757	813.98
881.933	864.94
882.109	869.39
882.285	864.74
882.461	773.68
882.637	839.75
882.813	793.64
882.989	822.51
883.165	864.94
883.341	815.72
883.517	866.49
883.693	840.72
883.869	832.97
884.044	799.06
884.22	834.32
884.396	851.18
884.572	825.41
884.747	867.84
884.923	837.42
885.099	850.99
885.275	901.55
885.45	797.71
885.626	844.4
885.801	797.71
885.977	806.04
886.153	735.51
886.328	815.14
886.504	789.18
886.679	843.04
886.855	809.52
887.03	813.79
887.206	853.7
887.381	830.64
887.557	827.54
887.732	852.34
887.908	811.85
888.083	842.27
888.258	811.85
888.434	825.41
888.609	813.98
888.784	869.39
888.96	804.1
889.135	807.2
889.31	798.87
889.485	813.4
889.661	804.87
889.836	856.6
890.011	837.04
890.186	802.94
890.361	818.24
890.537	823.28
890.712	817.47
890.887	785.31
891.062	839.17
891.237	870.17
891.412	784.53
891.587	835.29
891.762	879.47
891.937	849.82
892.112	762.44
892.287	805.26
892.462	757.21
892.637	741.13
892.812	735.9
892.987	753.53
893.161	706.45
893.336	710.33
893.511	730.86
893.686	757.99
893.861	735.9
894.035	748.3
894.21	735.51
894.385	700.83
894.56	731.44
894.734	685.14
894.909	659.56
895.084	714.98
895.258	692.11
895.433	711.49
895.608	654.91
895.782	578
895.957	645.61
896.131	645.81
896.306	575.87
896.48	571.99
896.655	597.95
896.829	528.01
897.004	562.11
897.178	537.89
897.353	538.08
897.527	566.95
897.701	560.75
897.876	506.12
898.05	587.88
898.224	538.08
898.399	597.76
898.573	544.09
898.747	432.69
898.921	500.89
899.096	421.64
899.27	445.28
899.444	442.18
899.618	460.97
899.792	483.64
899.967	476.86
900.141	507.47
900.315	463.88
900.489	452.45
900.663	505.15
900.837	472.6
901.011	399.94
901.185	531.3
901.359	469.5
901.533	485.58
901.707	490.81
901.881	458.45
902.055	429.2
902.229	454.39
902.403	499.53
902.576	463.88
902.75	501.47
902.924	595.24
903.098	523.75
903.272	548.16
903.446	622.56
903.619	555.33
903.793	600.86
903.967	575.87
904.14	634.38
904.314	613.06
904.488	585.55
904.661	641.55
904.835	594.66
905.009	634.18
905.182	673.13
905.356	650.26
905.529	605.51
905.703	543.51
905.876	584.2
906.05	544.09
906.223	546.8
906.397	481.12
906.57	479.96
906.744	465.82
906.917	475.31
907.09	479.96
907.264	469.11
907.437	448.19
907.61	425.52
907.784	438.11
907.957	480.15
908.13	431.14
908.304	465.43
908.477	437.72
908.65	443.15
908.823	413.7
908.996	469.11
909.17	415.64
909.343	435.2
909.516	413.31
909.689	398.97
909.862	409.82
910.035	416.41
910.208	395.29
910.381	385.02
910.554	457.68
910.727	427.45
910.9	411.18
911.073	406.72
911.246	456.52
911.419	460.97
911.592	427.84
911.765	394.32
911.938	387.35
912.11	402.07
912.283	428.04
912.456	454.19
912.629	415.25
912.802	390.64
912.974	369.33
913.147	364.49
913.32	296.87
913.493	322.06
913.665	378.05
913.838	369.33
914.01	326.9
914.183	352.28
914.356	378.82
914.528	393.74
914.701	420.29
914.873	411.37
915.046	338.33
915.218	330.39
915.391	278.85
915.563	309.08
915.736	328.64
915.908	395.1
916.081	369.33
916.253	356.74
916.425	349.57
916.598	377.27
916.77	376.69
916.942	324.38
917.115	284.47
917.287	363.13
917.459	336.39
917.632	295.71
917.804	250.18
917.976	329.61
918.148	321.48
918.32	333.87
918.493	358.67
918.665	392.97
918.837	341.43
919.009	429.78
919.181	412.73
919.353	363.32
919.525	362.16
919.697	365.07
919.869	353.25
920.041	412.54
920.213	477.64
920.385	417.19
920.557	388.51
920.729	399.56
920.901	372.62
921.073	393.36
921.244	388.32
921.416	425.13
921.588	385.8
921.76	367.59
921.932	430.75
922.103	401.49
922.275	392.97
922.447	354.8
922.619	291.64
922.79	383.86
922.962	364.68
923.134	406.34
923.305	324.96
923.477	313.14
923.648	321.67
923.82	342.98
923.991	287.38
924.163	298.03
924.335	335.23
924.506	302.88
924.677	375.14
924.849	303.65
925.02	341.04
925.192	360.22
925.363	329.61
925.535	326.13
925.706	324.96
925.877	358.29
926.049	314.11
926.22	336.01
926.391	308.69
926.562	340.85
926.734	287.76
926.905	354.61
927.076	290.67
927.247	298.03
927.419	256.38
927.59	261.03
927.761	263.74
927.932	243.78
928.103	299.58
928.274	225.18
928.445	246.49
928.616	238.94
928.787	228.09
928.958	271.88
929.129	234.48
929.3	212.98
929.471	188.37
929.642	152.72
929.813	106.22
929.984	224.21
930.155	112.81
930.326	176.36
930.496	147.1
930.667	99.83
930.838	156.79
931.009	125.79
931.18	123.85
931.35	134.7
931.521	144.39
931.692	100.99
931.863	51.39
932.033	119.59
932.204	115.13
932.374	111.07
932.545	59.53
932.716	113
932.886	124.63
933.057	3.54
933.227	42.87
933.398	120.95
933.568	28.14
933.739	11.09
933.909	21.36
934.08	103.51
934.25	-0.73
934.421	13.8
934.591	35.89
934.761	19.42
934.932	-14.29
935.102	25.24
935.272	2.37
935.443	15.55
935.613	24.07
935.783	61.27
935.953	-4.8
936.123	179.85
936.294	9.35
936.464	-11.77
936.634	19.42
936.804	6.44
936.974	-12.74
937.144	46.35
937.314	33.18
937.484	22.52
937.655	7.02
937.825	56.43
937.995	-7.12
938.165	65.34
938.334	13.42
938.504	66.31
938.674	-4.8
938.844	70.77
939.014	60.11
939.184	64.76
939.354	125.6
939.524	117.46
939.694	55.27
939.863	42.29
940.033	139.16
940.203	100.41
940.373	81.03
940.542	98.28
940.712	51.78
940.882	91.69
941.051	123.27
941.221	94.21
941.391	106.8
941.56	55.85
941.73	30.08
941.899	171.13
942.069	64.76
942.238	95.18
942.408	79.1
942.577	134.51
942.747	48.87
942.916	0.63
943.086	38.6
943.255	105.45
943.425	59.14
943.594	36.86
943.763	6.25
943.933	28.14
944.102	-13.9
944.271	59.53
944.441	39.77
944.61	14.19
944.779	46.74
944.948	93.24
945.117	33.37
945.287	41.12
945.456	9.93
945.625	-6.54
945.794	60.89
945.963	18.26
946.132	61.85
946.301	19.81
946.47	81.23
946.639	-14.48
946.808	7.99
946.977	53.91
947.146	105.45
947.315	19.23
947.484	60.11
947.653	35.31
947.822	47.71
947.991	20.78
948.16	69.41
948.329	73.48
948.498	48.49
948.666	40.35
948.835	85.88
949.004	31.63
949.173	27.17
949.341	34.15
949.51	56.24
949.679	95.57
949.847	44.03
950.016	111.65
950.185	101.38
950.353	22.91
950.522	27.75
950.69	99.44
950.859	51.39
951.028	108.16
951.196	45.39
951.365	19.81
951.533	41.7
951.701	97.5
951.87	96.15
952.038	17.68
952.207	42.09
952.375	106.61
952.543	29.5
952.712	36.67
952.88	36.47
953.048	120.37
953.217	52.94
953.385	50.62
953.553	92.85
953.721	22.91
953.89	39.19
954.058	-1.7
954.226	7.22
954.394	68.25
954.562	25.04
954.73	43.25
954.898	42.48
955.067	73.48
955.235	37.05
955.403	108.35
955.571	94.6
955.739	50.04
955.907	36.86
956.075	31.82
956.243	20
956.41	76.38
956.578	-3.05
956.746	-4.8
956.914	20.59
957.082	78.9
957.25	72.12
957.418	42.09
957.585	67.28
957.753	82.97
957.921	22.72
958.089	36.47
958.256	64.37
958.424	66.31
958.592	62.24
958.759	46.55
958.927	81.81
959.095	61.66
959.262	26.98
959.43	97.5
959.597	33.18
959.765	69.41
959.932	9.54
960.1	88.4
960.267	57.79
960.435	53.14
960.602	68.25
960.77	45.19
960.937	14.19
961.104	60.69
961.272	4.7
961.439	29.5
961.606	71.35
961.774	85.88
961.941	23.3
962.108	74.64
962.275	61.47
962.443	89.95
962.61	67.08
962.777	138.58
962.944	80.45
963.111	43.64
963.278	55.65
963.446	85.1
963.613	53.52
963.78	81.62
963.947	94.21
964.114	61.85
964.281	162.8
964.448	87.04
964.615	39.38
964.782	73.09
964.949	99.44
965.116	98.28
965.282	102.15
965.449	65.73
965.616	39.96
965.783	92.47
965.95	73.67
966.117	7.8
966.283	80.84
966.45	63.21
966.617	68.05
966.784	117.27
966.95	83.75
967.117	103.12
967.284	57.2
967.45	55.85
967.617	108.74
967.784	106.03
967.95	165.31
968.117	93.24
968.283	114.75
968.45	181.59
968.616	91.88
968.783	120.17
968.949	85.68
969.116	118.62
969.282	72.32
969.449	97.7
969.615	94.79
969.781	39.57
969.948	79.1
970.114	52.36
970.28	128.89
970.447	71.73
970.613	136.06
970.779	85.49
970.945	92.66
971.112	94.21
971.278	79.29
971.444	76
971.61	119.98
971.776	71.73
971.942	78.52
972.108	99.25
972.275	80.07
972.441	102.35
972.607	166.09
972.773	88.4
972.939	100.99
973.105	88.4
973.271	41.32
973.437	45.97
973.602	53.52
973.768	115.33
973.934	69.6
974.1	87.62
974.266	0.44
974.432	78.32
974.598	60.89
974.763	124.43
974.929	47.71
975.095	150.4
975.261	57.59
975.426	40.15
975.592	56.04
975.758	131.99
975.923	30.08
976.089	42.48
976.255	107.97
976.42	99.05
976.586	104.48
976.751	91.69
976.917	149.82
977.082	99.63
977.248	44.61
977.413	22.14
977.579	69.8
977.744	75.61
977.91	35.89
978.075	61.47
978.24	82.58
978.406	70.18
978.571	61.66
978.736	47.32
978.902	93.63
979.067	54.88
979.232	15.35
979.397	96.15
979.563	121.72
979.728	24.85
979.893	34.15
980.058	55.07
980.223	85.68
980.388	64.76
980.554	68.25
980.719	69.6
980.884	70.38
981.049	100.6
981.214	55.07
981.379	79.87
981.544	71.15
981.709	80.07
981.874	49.26
982.039	80.07
982.204	99.05
982.368	83.36
982.533	42.87
982.698	104.48
982.863	102.15
983.028	54.1
983.193	87.82
983.357	102.54
983.522	60.89
983.687	37.25
983.852	70.96
984.016	48.49
984.181	71.35
984.346	104.87
984.51	93.63
984.675	74.25
984.839	62.24
985.004	105.25
985.168	82.2
985.333	80.84
985.498	30.27
985.662	87.23
985.827	81.03
985.991	48.87
986.155	79.1
986.32	95.37
986.484	117.65
986.649	82.58
986.813	-1.5
986.977	61.27
987.142	92.08
987.306	52.17
987.47	45.19
987.634	79.87
987.799	71.35
987.963	72.7
988.127	109.13
988.291	156.4
988.455	75.22
988.62	58.95
988.784	74.64
988.948	79.1
989.112	39.77
989.276	72.9
989.44	72.32
989.604	45.39
989.768	75.61
989.932	148.85
990.096	32.02
990.26	42.29
990.424	23.69
990.588	45.19
990.752	120.37
990.915	87.04
991.079	50.62
991.243	42.09
991.407	94.4
991.571	79.1
991.734	76.19
991.898	91.3
992.062	145.55
992.226	38.6
992.389	44.61
992.553	12.45
992.717	40.93
992.88	51
993.044	52.55
993.207	54.49
993.371	91.11
993.535	90.14
993.698	50.62
993.862	93.05
994.025	115.91
994.189	82.58
994.352	70.77
994.515	81.23
994.679	98.47
994.842	87.23
995.006	93.82
995.169	37.05
995.332	39.96
995.496	99.25
995.659	2.18
995.822	43.45
995.985	65.73
996.149	107.97
996.312	65.92
996.475	121.92
996.638	41.32
996.801	88.78
996.964	116.88
997.128	55.07
997.291	77.93
997.454	51.97
997.617	2.57
997.78	97.12
997.943	29.69
998.106	73.87
998.269	42.29
998.432	31.63
998.595	65.73
998.758	-4.02
998.92	23.69
999.083	20.97
999.246	58.17
999.409	13.22
999.572	0.24
999.735	50.81
999.897	56.62
1000.06	38.41
1000.223	17.1
1000.386	65.53
1000.548	55.07
1000.711	47.52
1000.874	67.47
1001.036	-4.41
1001.199	71.15
1001.361	30.08
1001.524	60.69
1001.687	72.9
1001.849	35.89
1002.012	57.01
1002.174	66.31
1002.337	84.72
1002.499	44.42
1002.661	90.92
1002.824	8.38
1002.986	23.69
1003.149	46.35
1003.311	12.84
1003.473	93.82
1003.636	29.69
1003.798	73.28
1003.96	55.46
1004.123	51.59
1004.285	33.95
1004.447	12.84
1004.609	25.43
1004.771	84.91
1004.933	-39.67
1005.096	26.01
1005.258	-5.18
1005.42	31.82
1005.582	68.44
1005.744	28.34
1005.906	-1.5
1006.068	33.95
1006.23	-19.91
1006.392	-30.18
1006.554	10.32
1006.716	67.47
1006.878	65.73
1007.04	-3.83
1007.202	37.64
1007.363	45.39
1007.525	30.66
1007.687	53.33
1007.849	83.55
1008.011	-4.21
1008.172	10.32
1008.334	21.94
1008.496	54.49
1008.658	-14.1
1008.819	-8.28
1008.981	3.73
1009.143	20
1009.304	34.73
1009.466	62.82
1009.627	91.11
1009.789	113.78
1009.95	45
1010.112	17.49
1010.273	51.39
1010.435	20.78
1010.596	21.94
1010.758	5.09
1010.919	44.42
1011.081	-10.03
1011.242	8.77
1011.403	46.35
1011.565	38.8
1011.726	53.14
1011.887	-12.35
1012.049	2.18
1012.21	72.9
1012.371	86.85
1012.532	-59.24
1012.693	21.36
1012.855	9.74
1013.016	21.17
1013.177	59.53
1013.338	26.4
1013.499	90.33
1013.66	43.06
1013.821	24.46
1013.982	39.77
1014.143	35.5
1014.304	4.5
1014.465	20.97
1014.626	44.8
1014.787	21.94
1014.948	100.02
1015.109	-63.5
1015.27	61.85
1015.431	-4.41
1015.592	9.15
1015.752	74.83
1015.913	36.09
1016.074	37.05
1016.235	17.87
1016.395	-0.34
1016.556	21.17
1016.717	38.6
1016.877	43.06
1017.038	-1.7
1017.199	32.79
1017.359	38.8
1017.52	50.62
1017.681	-3.63
1017.841	31.63
1018.002	9.93
1018.162	16.32
1018.323	49.26
1018.483	26.4
1018.644	18.84
1018.804	-32.89
1018.964	-28.82
1019.125	-9.06
1019.285	29.3
1019.446	-31.53
1019.606	5.47
1019.766	-6.15
1019.926	20.59
1020.087	-3.44
1020.247	-14.87
1020.407	67.86
1020.567	45
1020.728	20.2
1020.888	-21.65
1021.048	20.59
1021.208	-18.94
1021.368	-5.18
1021.528	73.67
1021.688	56.82
1021.848	51.39
1022.008	21.94
1022.168	23.1
1022.328	32.99
1022.488	39.38
1022.648	5.09
1022.808	2.95
1022.968	22.52
1023.128	-0.92
1023.288	-20.68
1023.448	6.05
1023.608	38.41
1023.767	44.42
1023.927	-14.68
1024.087	-27.46
1024.247	-26.49
1024.406	0.05
1024.566	-23.98
1024.726	-8.86
1024.885	5.67
1025.045	38.41
1025.205	20.78
1025.364	22.52
1025.524	32.02
1025.683	9.74
1025.843	44.42
1026.003	24.07
1026.162	36.28
1026.321	45.97
1026.481	4.89
1026.64	-0.53
1026.8	28.72
1026.959	0.63
1027.119	9.54
1027.278	-11.58
1027.437	-11
1027.597	30.66
1027.756	17.1
1027.915	5.86
1028.074	15.55
1028.234	-11.38
1028.393	21.55
1028.552	-23.98
1028.711	-54.39
1028.87	63.4
1029.03	-25.33
1029.189	-6.35
1029.348	-50.13
1029.507	-12.55
1029.666	6.05
1029.825	-33.28
1029.984	-19.91
1030.143	14
1030.302	4.5
1030.461	-28.24
1030.62	14.39
1030.779	39.96
1030.938	-23.2
1031.097	-24.17
1031.255	24.46
1031.414	44.03
1031.573	34.54
1031.732	-47.81
1031.891	-4.8
1032.049	57.79
1032.208	29.89
1032.367	-21.65
1032.525	-2.08
1032.684	-18.16
1032.843	1.99
1033.001	-32.89
1033.16	138.77
1033.319	32.4
1033.477	20.59
1033.636	-15.26
1033.794	-44.71
1033.953	32.4
1034.111	43.84
1034.27	-16.03
1034.428	-8.86
1034.587	-46.26
1034.745	22.52
1034.903	1.02
1035.062	33.18
1035.22	-27.66
1035.378	-3.83
1035.537	-24.36
1035.695	0.24
1035.853	-1.31
1036.011	21.94
1036.17	17.49
1036.328	-30.56
1036.486	-13.71
1036.644	7.02
1036.802	-68.34
1036.96	-32.89
1037.119	4.5
1037.277	-6.93
1037.435	-52.84
1037.593	-36.96
1037.751	19.81
1037.909	11.09
1038.067	11.09
