Data from oakcork_FLMT105791__210__17-32-41-056.txt Node

Date: Mon Mar 20 17:32:41 GMT 2023
User: antho
Spectrometer: FLMT10579
Trigger mode: 0
Integration Time (sec): 1.000000E-1
Scans to average: 10
Electric dark correction enabled: true
Nonlinearity correction enabled: false
Boxcar width: 0
XAxis mode: Wavelengths
Number of Pixels in Spectrum: 3648
>>>>>Begin Spectral Data<<<<<
345.248	-135.3
345.464	-135.3
345.681	-135.3
345.898	-150.99
346.114	-150.61
346.331	-21.76
346.548	36.36
346.764	6.14
346.981	-17.31
347.197	-33.78
347.414	13.89
347.631	-25.83
347.847	60.97
348.064	-3.75
348.28	22.6
348.497	-26.61
348.713	-10.91
348.93	25.51
349.146	25.51
349.363	3.81
349.579	12.14
349.796	22.22
350.012	4.39
350.229	-6.85
350.445	9.82
350.661	-20.41
350.878	5.17
351.094	29.58
351.311	32.48
351.527	16.6
351.743	-0.06
351.96	38.49
352.176	45.08
352.392	41.2
352.609	26.29
352.825	-9.36
353.041	19.12
353.257	-25.83
353.474	-7.04
353.69	20.86
353.906	5.75
354.122	-16.15
354.339	49.15
354.555	-0.06
354.771	-11.69
354.987	80.34
355.203	57.09
355.42	3.23
355.636	-11.5
355.852	11.75
356.068	23.19
356.284	-15.56
356.5	60
356.716	25.51
356.932	13.5
357.148	12.72
357.364	0.71
357.58	58.45
357.796	85.77
358.012	36.75
358.228	40.82
358.444	-51.6
358.66	49.15
358.876	19.7
359.092	0.9
359.308	17.57
359.524	23.19
359.74	-4.71
359.956	-3.55
360.172	-1.61
360.388	36.55
360.604	-6.07
360.819	92.55
361.035	2.65
361.251	15.82
361.467	-0.65
361.683	38.49
361.898	23.77
362.114	35
362.33	38.1
362.546	54.57
362.762	5.55
362.977	20.09
363.193	-21.38
363.409	61.74
363.624	-33.39
363.84	-11.69
364.056	6.14
364.271	39.27
364.487	23.19
364.703	-2
364.918	-22.73
365.134	20.47
365.35	-2.39
365.565	110.57
365.781	32.87
365.996	27.84
366.212	60
366.427	20.47
366.643	28.61
366.858	2.84
367.074	3.23
367.289	61.55
367.505	103.2
367.72	-22.54
367.936	7.88
368.151	36.94
368.367	15.24
368.582	53.22
368.798	4.2
369.013	74.72
369.228	21.05
369.444	32.29
369.659	74.14
369.874	58.64
370.09	72.98
370.305	-38.23
370.52	15.24
370.736	94.68
370.951	18.15
371.166	78.02
371.381	75.69
371.597	27.84
371.812	9.62
372.027	-13.43
372.242	32.29
372.458	77.82
372.673	4.59
372.888	8.27
373.103	23.57
373.318	106.3
373.533	34.03
373.749	53.41
373.964	-13.82
374.179	72.01
374.394	0.71
374.609	61.74
374.824	1.68
375.039	61.35
375.254	9.04
375.469	79.95
375.684	29.38
375.899	55.93
376.114	23.38
376.329	15.24
376.544	72.4
376.759	57.87
376.974	-8.59
377.189	5.17
377.404	42.95
377.619	68.72
377.834	-25.45
378.049	-4.71
378.264	2.65
378.478	24.93
378.693	7.49
378.908	28.42
379.123	39.65
379.338	71.04
379.553	30.16
379.767	30.16
379.982	52.44
380.197	62.52
380.412	52.25
380.626	27.25
380.841	119.48
381.056	48.76
381.271	88.67
381.485	28.8
381.7	0.32
381.915	51.08
382.129	2.26
382.344	47.98
382.559	38.88
382.773	57.48
382.988	-18.66
383.202	23.77
383.417	0.71
383.632	94.48
383.846	16.79
384.061	48.57
384.275	43.72
384.49	77.82
384.704	88.48
384.919	56.9
385.133	34.62
385.348	76.08
385.562	-17.7
385.777	77.63
385.991	34.81
386.206	21.44
386.42	18.34
386.634	81.12
386.849	63.48
387.063	57.48
387.277	23.19
387.492	13.11
387.706	-3.36
387.92	-1.42
388.135	57.67
388.349	32.68
388.563	26.48
388.778	51.86
388.992	47.02
389.206	53.8
389.42	115.22
389.635	57.87
389.849	82.86
390.063	94.29
390.277	59.22
390.491	113.67
390.706	61.93
390.92	97.39
391.134	24.54
391.348	71.23
391.562	14.66
391.776	57.09
391.99	35.58
392.205	79.18
392.419	40.04
392.633	37.13
392.847	90.8
393.061	19.89
393.275	90.8
393.489	41.2
393.703	71.04
393.917	49.53
394.131	37.13
394.345	49.34
394.559	100.49
394.773	25.7
394.986	72.78
395.2	48.37
395.414	87.12
395.628	22.8
395.842	45.47
396.056	41.98
396.27	-0.45
396.484	71.04
396.697	56.32
396.911	66.97
397.125	74.53
397.339	58.25
397.553	66.39
397.766	107.85
397.98	67.36
398.194	92.74
398.408	62.9
398.621	82.08
398.835	78.6
399.049	86.54
399.262	109.6
399.476	119.28
399.69	101.07
399.903	122.38
400.117	83.63
400.331	103.98
400.544	86.35
400.758	183.61
400.971	93.13
401.185	121.8
401.398	52.83
401.612	128
401.826	109.4
402.039	112.5
402.253	58.06
402.466	105.92
402.68	65.03
402.893	108.24
403.106	115.6
403.32	76.08
403.533	96.81
403.747	116.76
403.96	100.1
404.174	105.53
404.387	56.12
404.6	105.14
404.814	148.93
405.027	100.68
405.24	60.58
405.454	88.09
405.667	132.26
405.88	30.93
406.094	121.61
406.307	135.75
406.52	73.75
406.733	50.12
406.947	44.5
407.16	153.19
407.373	116.96
407.586	85.96
407.799	68.72
408.012	125.87
408.226	99.52
408.439	147.38
408.652	60.19
408.865	132.85
409.078	139.05
409.291	115.22
409.504	77.63
409.717	124.9
409.93	141.56
410.143	119.86
410.357	35.2
410.57	60.38
410.783	81.31
410.996	121.8
411.209	89.83
411.421	163.46
411.634	118.51
411.847	75.69
412.06	104.17
412.273	113.28
412.486	114.44
412.699	195.04
412.912	122.19
413.125	129.55
413.338	111.92
413.55	114.83
413.763	118.9
413.976	142.34
414.189	90.22
414.402	97.97
414.615	157.45
414.827	78.79
415.04	144.08
415.253	136.33
415.466	142.15
415.678	177.02
415.891	127.61
416.104	105.14
416.316	107.27
416.529	106.5
416.742	146.99
416.954	184
417.167	139.63
417.38	108.05
417.592	160.55
417.805	111.73
418.017	78.98
418.23	144.28
418.442	90.22
418.655	109.6
418.868	133.23
419.08	157.84
419.293	158.23
419.505	135.17
419.718	125.29
419.93	187.48
420.142	120.45
420.355	176.44
420.567	163.07
420.78	155.32
420.992	131.1
421.205	184.77
421.417	91.97
421.629	132.26
421.842	129.75
422.054	102.23
422.266	157.26
422.479	195.43
422.691	138.85
422.903	153.19
423.115	110.37
423.328	145.83
423.54	135.95
423.752	142.53
423.964	115.41
424.177	181.48
424.389	159.39
424.601	224.68
424.813	159.39
425.025	176.05
425.238	176.44
425.45	122.58
425.662	127.61
425.874	426.37
426.086	167.72
426.298	184.96
426.51	144.66
426.722	171.21
426.934	116.57
427.146	168.88
427.358	127.81
427.57	184
427.782	137.88
427.994	159.78
428.206	128.58
428.418	119.48
428.63	179.35
428.842	187.48
429.054	168.11
429.266	190.78
429.478	111.73
429.69	160.55
429.902	101.46
430.114	167.14
430.325	156.68
430.537	108.63
430.749	117.73
430.961	94.68
431.173	114.83
431.384	145.83
431.596	66.97
431.808	132.46
432.02	146.21
432.231	202.01
432.443	181.48
432.655	173.53
432.867	146.99
433.078	171.21
433.29	237.08
433.502	194.65
433.713	232.04
433.925	202.6
434.136	211.12
434.348	142.15
434.56	125.87
434.771	255.88
434.983	128.39
435.194	174.7
435.406	171.6
435.617	202.4
435.829	240.38
436.04	228.17
436.252	228.56
436.463	233.21
436.675	233.4
436.886	213.06
437.098	212.67
437.309	243.28
437.521	211.7
437.732	224.68
437.943	214.03
438.155	227.59
438.366	166.75
438.578	275.25
438.789	212.28
439	207.44
439.211	228.75
439.423	228.17
439.634	223.91
439.845	246.96
440.057	214.22
440.268	241.93
440.479	217.32
440.69	252
440.902	212.67
441.113	206.47
441.324	214.22
441.535	221.78
441.746	265.18
441.957	209.96
442.168	203.37
442.38	259.36
442.591	268.08
442.802	229.14
443.013	201.82
443.224	271.38
443.435	223.91
443.646	215.58
443.857	236.5
444.068	218.68
444.279	220.81
444.49	309.74
444.701	226.81
444.912	374.64
445.123	284.36
445.334	280.87
445.545	269.24
445.756	265.95
445.967	252.97
446.178	278.93
446.388	278.16
446.599	275.25
446.81	293.66
447.021	273.31
447.232	298.89
447.443	306.06
447.653	252.19
447.864	291.72
448.075	289.78
448.286	298.31
448.496	285.33
448.707	307.22
448.918	256.84
449.129	326.01
449.339	279.51
449.55	286.88
449.761	268.08
449.971	327.37
450.182	262.46
450.393	309.93
450.603	281.06
450.814	305.47
451.024	323.49
451.235	352.17
451.446	343.45
451.656	360.69
451.867	289.59
452.077	327.95
452.288	363.02
452.498	359.53
452.709	296.17
452.919	331.05
453.13	273.12
453.34	330.27
453.55	242.31
453.761	318.65
453.971	327.37
454.182	349.07
454.392	345.58
454.602	355.66
454.813	340.74
455.023	367.47
455.233	277.38
455.444	326.01
455.654	266.34
455.864	309.93
456.075	307.02
456.285	296.17
456.495	326.21
456.705	314
456.916	362.05
457.126	387.43
457.336	318.65
457.546	287.46
457.756	311.67
457.967	343.06
458.177	336.47
458.387	319.23
458.597	327.76
458.807	320.78
459.017	305.28
459.227	321.75
459.437	317.29
459.647	350.23
459.857	371.35
460.068	326.79
460.278	384.52
460.488	325.62
460.698	402.35
460.908	324.85
461.117	307.02
461.327	301.99
461.537	365.92
461.747	361.66
461.957	340.35
462.167	418.04
462.377	387.82
462.587	356.24
462.797	397.5
463.007	368.06
463.216	384.33
463.426	415.33
463.636	377.94
463.846	316.52
464.056	342.29
464.265	404.29
464.475	326.79
464.685	369.61
464.895	397.12
465.104	350.42
465.314	398.47
465.524	356.62
465.733	338.41
465.943	456.6
466.153	433.74
466.362	400.8
466.572	395.37
466.782	380.84
466.991	388.2
467.201	408.94
467.41	326.4
467.62	382.59
467.829	378.13
468.039	415.52
468.249	394.02
468.458	410.87
468.668	437.03
468.877	414.75
469.086	440.52
469.296	444.39
469.505	377.36
469.715	480.62
469.924	452.14
470.134	438.97
470.343	482.95
470.552	426.76
470.762	396.92
470.971	400.8
471.18	412.04
471.39	427.73
471.599	395.57
471.808	454.66
472.018	406.8
472.227	473.45
472.436	445.94
472.645	462.8
472.855	418.04
473.064	501.74
473.273	469.58
473.482	462.99
473.691	500.19
473.901	475.58
474.11	468.03
474.319	561.41
474.528	448.46
474.737	499.61
474.946	489.92
475.155	527.7
475.364	518.79
475.573	502.32
475.783	510.85
475.992	498.25
476.201	554.44
476.41	503.87
476.619	446.91
476.828	502.32
477.037	499.42
477.245	494.38
477.454	553.47
477.663	543.78
477.872	537.39
478.081	607.72
478.29	499.22
478.499	602.88
478.708	543.01
478.917	609.66
479.125	538.75
479.334	585.05
479.543	546.69
479.752	547.08
479.961	546.3
480.169	603.85
480.378	560.25
480.587	687.54
480.796	605.59
481.004	601.91
481.213	605.2
481.422	568.78
481.63	605.2
481.839	626.13
482.048	663.91
482.256	625.74
482.465	633.3
482.674	663.13
482.882	679.79
483.091	736.37
483.299	639.5
483.508	645.69
483.716	670.69
483.925	685.03
484.134	625.35
484.342	633.1
484.551	670.88
484.759	672.24
484.967	679.02
485.176	734.24
485.384	666.43
485.593	702.08
485.801	656.74
486.01	647.24
486.218	628.45
486.426	582.53
486.635	604.04
486.843	594.16
487.051	619.54
487.26	633.3
487.468	640.85
487.676	669.33
487.885	594.55
488.093	662.36
488.301	693.94
488.509	681.54
488.717	711.38
488.926	722.81
489.134	685.03
489.342	732.11
489.55	673.79
489.758	734.62
489.967	713.89
490.175	807.86
490.383	730.56
490.591	803.6
490.799	706.53
491.007	769.5
491.215	742.76
491.423	736.17
491.631	777.64
491.839	706.73
492.047	762.14
492.255	743.15
492.463	703.04
492.671	755.16
492.879	766.01
493.087	752.06
493.295	802.05
493.503	788.87
493.711	819.29
493.919	828.01
494.127	805.54
494.334	826.27
494.542	773.18
494.75	788.29
494.958	836.54
495.166	857.85
495.374	822.59
495.581	821.04
495.789	826.27
495.997	876.06
496.205	816.58
496.412	812.32
496.62	832.08
496.828	848.35
497.035	809.8
497.243	833.63
497.451	885.55
497.658	864.05
497.866	854.17
498.074	902.22
498.281	825.3
498.489	933.6
498.696	845.25
498.904	838.28
499.112	825.3
499.319	896.6
499.527	859.4
499.734	875.67
499.942	836.92
500.149	833.24
500.357	869.86
500.564	827.82
500.771	845.06
500.979	845.25
501.186	803.21
501.394	881.29
501.601	862.89
501.808	862.3
502.016	850.29
502.223	854.94
502.43	871.99
502.638	858.82
502.845	825.88
503.052	961.5
503.26	842.93
503.467	967.12
503.674	850.87
503.881	862.5
504.089	968.67
504.296	915.39
504.503	844.87
504.71	902.8
504.917	863.47
505.125	903.96
505.332	899.7
505.539	925.66
505.746	960.53
505.953	964.41
506.16	937.67
506.367	977.97
506.574	1017.69
506.781	1024.08
506.988	932.05
507.195	973.13
507.402	921.98
507.609	971.19
507.816	904.93
508.023	914.03
508.23	912.48
508.437	904.73
508.644	956.08
508.851	991.15
509.058	1000.83
509.265	956.47
509.472	1003.35
509.679	1071.75
509.885	998.7
510.092	996.18
510.299	984.75
510.506	996.76
510.713	1005.29
510.92	1000.25
511.126	1017.11
511.333	1043.65
511.54	1012.46
511.746	1071.94
511.953	1066.32
512.16	1086.66
512.367	1040.94
512.573	1045.4
512.78	1030.67
512.987	1024.47
513.193	1059.35
513.4	977
513.606	1030.09
513.813	1021.95
514.02	1027.57
514.226	1077.36
514.433	1043.65
514.639	1014.4
514.846	1031.06
515.052	1031.64
515.259	1040.36
515.465	1070
515.672	1043.07
515.878	1145.18
516.085	1060.12
516.291	1094.61
516.497	1050.82
516.704	1039.58
516.91	1004.13
517.117	966.15
517.323	950.46
517.529	996.96
517.736	968.87
517.942	1010.13
518.148	992.7
518.354	1018.66
518.561	1024.47
518.767	1045.59
518.973	1082.01
519.179	1102.94
519.386	1039.58
519.592	1049.85
519.798	1040.16
520.004	1151.18
520.21	1086.47
520.417	1137.62
520.623	1186.06
520.829	1169.59
521.035	1189.16
521.241	1165.32
521.447	1218.22
521.653	1311.99
521.859	1193.22
522.065	1238.37
522.271	1301.72
522.477	1276.54
522.683	1295.91
522.889	1221.32
523.095	1237.79
523.301	1244.96
523.507	1198.07
523.713	1227.52
523.919	1225.97
524.125	1296.69
524.331	1239.34
524.537	1343.96
524.742	1337.57
524.948	1307.34
525.154	1325.75
525.36	1433.28
525.566	1316.06
525.772	1392.98
525.977	1316.25
526.183	1328.46
526.389	1345.9
526.595	1281.19
526.8	1287.97
527.006	1264.52
527.212	1220.16
527.417	1237.98
527.623	1222.67
527.829	1286.8
528.034	1301.72
528.24	1313.54
528.446	1322.65
528.651	1392.98
528.857	1387.55
529.062	1442.58
529.268	1429.4
529.473	1397.63
529.679	1419.13
529.884	1479.58
530.09	1429.4
530.295	1458.85
530.501	1453.62
530.706	1427.66
530.912	1392.2
531.117	1466.21
531.323	1475.13
531.528	1516.01
531.733	1479
531.939	1473.38
532.144	1486.17
532.35	1453.23
532.555	1493.73
532.76	1515.43
532.966	1486.36
533.171	1496.44
533.376	1460.6
533.581	1407.7
533.787	1488.11
533.992	1504
534.197	1527.05
534.402	1525.5
534.607	1497.02
534.813	1601.06
535.018	1522.98
535.223	1503.8
535.428	1567.93
535.633	1610.36
535.838	1611.52
536.043	1594.48
536.249	1648.53
536.454	1557.28
536.659	1591.96
536.864	1582.46
537.069	1528.6
537.274	1582.46
537.479	1579.36
537.684	1598.16
537.889	1536.35
538.094	1669.07
538.299	1594.86
538.504	1616.76
538.708	1612.49
538.913	1633.22
539.118	1606.68
539.323	1630.71
539.528	1534.8
539.733	1561.15
539.938	1608.81
540.142	1588.28
540.347	1592.34
540.552	1561.93
540.757	1554.56
540.962	1546.62
541.166	1541
541.371	1582.46
541.576	1548.94
541.781	1528.6
541.985	1595.83
542.19	1581.69
542.395	1676.43
542.599	1661.51
542.804	1646.01
543.008	1697.55
543.213	1605.91
543.418	1605.52
543.622	1663.26
543.827	1586.14
544.031	1671.78
544.236	1687.86
544.44	1677.01
544.645	1698.13
544.849	1636.32
545.054	1731.45
545.258	1753.15
545.463	1733.39
545.667	1676.82
545.872	1685.34
546.076	1677.59
546.281	1712.85
546.485	1676.24
546.689	1733.2
546.894	1756.45
547.098	1704.91
547.302	1686.89
547.507	1676.24
547.711	1697.55
547.915	1744.05
548.119	1673.91
548.324	1697.35
548.528	1740.37
548.732	1721.96
548.936	1745.6
549.141	1760.9
549.345	1731.07
549.549	1706.07
549.753	1715.95
549.957	1790.55
550.161	1776.4
550.366	1784.15
550.57	1698.52
550.774	1722.93
550.978	1746.76
551.182	1749.86
551.386	1713.05
551.59	1743.47
551.794	1716.54
551.998	1740.75
552.202	1755.09
552.406	1679.34
552.61	1769.82
552.814	1717.7
553.018	1762.26
553.222	1721.38
553.426	1725.45
553.63	1779.89
553.833	1737.46
554.037	1707.43
554.241	1774.08
554.445	1779.31
554.649	1713.05
554.853	1717.5
555.056	1799.85
555.26	1800.43
555.464	1752.19
555.668	1759.16
555.871	1785.9
556.075	1787.06
556.279	1699.29
556.483	1710.34
556.686	1748.5
556.89	1730.29
557.094	1743.85
557.297	1643.3
557.501	1787.64
557.704	1668.68
557.908	1765.17
558.112	1630.12
558.315	1738.24
558.519	1711.11
558.722	1723.32
558.926	1661.71
559.129	1648.72
559.333	1602.81
559.536	1634.58
559.74	1625.09
559.943	1618.11
560.147	1637.29
560.35	1622.37
560.553	1620.24
560.757	1612.69
560.96	1688.06
561.164	1633.22
561.367	1696.19
561.57	1649.11
561.774	1664.22
561.977	1642.33
562.18	1599.71
562.384	1717.31
562.587	1635.55
562.79	1613.46
562.993	1586.73
563.197	1647.56
563.4	1665
563.603	1676.04
563.806	1736.49
564.009	1580.33
564.212	1633.42
564.416	1608.42
564.619	1608.23
564.822	1524.14
565.025	1637.87
565.228	1592.54
565.431	1612.69
565.634	1491.4
565.837	1553.01
566.04	1516.59
566.243	1519.88
566.446	1452.07
566.649	1575.1
566.852	1482.68
567.055	1562.7
567.258	1536.74
567.461	1609.01
567.664	1567.54
567.867	1510.58
568.07	1554.56
568.273	1559.99
568.475	1570.45
568.678	1505.16
568.881	1538.29
569.084	1454.78
569.287	1415.26
569.489	1450.52
569.692	1484.04
569.895	1478.61
570.098	1436.57
570.3	1417.58
570.503	1387.36
570.706	1415.07
570.909	1407.32
571.111	1349.77
571.314	1365.27
571.516	1364.69
571.719	1401.7
571.922	1352.48
572.124	1367.02
572.327	1388.33
572.529	1346.87
572.732	1337.95
572.935	1408.48
573.137	1449.55
573.34	1379.22
573.542	1390.27
573.745	1414.1
573.947	1389.49
574.15	1350.74
574.352	1334.08
574.554	1430.76
574.757	1326.72
574.959	1334.08
575.162	1350.74
575.364	1343.38
575.566	1417.58
575.769	1295.72
575.971	1358.68
576.173	1237.79
576.376	1319.16
576.578	1333.89
576.78	1353.45
576.982	1238.37
577.185	1278.47
577.387	1252.51
577.589	1260.65
577.791	1282.15
577.993	1320.71
578.196	1292.62
578.398	1305.4
578.6	1312.19
578.802	1220.93
579.004	1242.24
579.206	1274.99
579.408	1285.84
579.61	1236.04
579.812	1300.17
580.014	1219.77
580.216	1290.87
580.418	1265.1
580.62	1271.11
580.822	1236.43
581.024	1266.85
581.226	1282.15
581.428	1268.98
581.63	1350.16
581.832	1274.02
582.034	1322.07
582.236	1281.38
582.438	1336.21
582.64	1319.35
582.841	1354.81
583.043	1374.57
583.245	1323.42
583.447	1293.59
583.649	1276.15
583.85	1320.9
584.052	1371.86
584.254	1259.1
584.456	1329.43
584.657	1254.64
584.859	1291.84
585.061	1247.28
585.262	1260.07
585.464	1237.98
585.666	1297.65
585.867	1268.4
586.069	1308.7
586.27	1290.1
586.472	1287.77
586.674	1255.03
586.875	1250.77
587.077	1241.27
587.278	1253.87
587.48	1265.69
587.681	1357.72
587.883	1285.45
588.084	1180.05
588.285	1234.88
588.487	1219.19
588.688	1215.31
588.89	1137.04
589.091	1125.99
589.292	1124.44
589.494	1115.34
589.695	1104.1
589.896	1026.21
590.098	1022.73
590.299	1094.99
590.5	1043.85
590.702	1082.59
590.903	1118.83
591.104	1195.74
591.305	1148.47
591.507	1185.47
591.708	1188.96
591.909	1136.07
592.11	1203.88
592.311	1198.07
592.512	1148.28
592.714	1112.24
592.915	1142.08
593.116	1155.25
593.317	1154.28
593.518	1169.01
593.719	1128.32
593.92	1180.44
594.121	1167.07
594.322	1164.74
594.523	1152.93
594.724	1108.56
594.925	1109.33
595.126	1145.76
595.327	1155.83
595.528	1127.74
595.729	1158.74
595.929	1148.66
596.13	1133.36
596.331	1166.1
596.532	1151.96
596.733	1231.78
596.934	1174.43
597.135	1208.14
597.335	1200.01
597.536	1112.24
597.737	1155.06
597.938	1124.83
598.138	1177.92
598.339	1129.48
598.54	1156.41
598.74	1157.96
598.941	1171.14
599.142	1219.19
599.342	1170.75
599.543	1131.03
599.744	1166.87
599.944	1143.43
600.145	1127.54
600.345	1161.26
600.546	1214.34
600.746	1197.1
600.947	1257.35
601.147	1182.76
601.348	1221.32
601.548	1159.9
601.749	1185.86
601.949	1119.79
602.15	1128.9
602.35	1133.55
602.551	1189.54
602.751	1133.94
602.951	1130.64
603.152	1090.34
603.352	1148.08
603.552	1138.2
603.753	1185.86
603.953	1179.47
604.153	1167.65
604.354	1153.12
604.554	1145.18
604.754	1158.93
604.954	1129.29
605.155	1150.41
605.355	1151.38
605.555	1202.33
605.755	1223.26
605.955	1158.93
606.155	1160.29
606.356	1127.74
606.556	1178.89
606.756	1172.69
606.956	1110.3
607.156	1211.05
607.356	1147.31
607.556	1159.9
607.756	1155.83
607.956	1154.28
608.156	1160.87
608.356	1089.76
608.556	1159.13
608.756	1133.74
608.956	1118.63
609.156	1124.06
609.356	1096.93
609.556	1073.68
609.755	1156.99
609.955	1094.99
610.155	1118.05
610.355	1131.81
610.555	1081.82
610.755	1098.48
610.954	1041.13
611.154	1114.56
611.354	1151.76
611.554	1086.28
611.753	1089.96
611.953	1042.88
612.153	1089.96
612.352	1106.81
612.552	1052.76
612.752	1000.45
612.951	1074.85
613.151	1045.59
613.351	1059.35
613.55	1031.83
613.75	1075.81
613.949	1020.4
614.149	1057.99
614.348	1022.73
614.548	1009.75
614.747	1006.84
614.947	1032.03
615.146	958.98
615.346	1070.39
615.545	1062.83
615.745	1075.62
615.944	1048.88
616.144	1060.51
616.343	1030.48
616.542	1005.87
616.742	1002.38
616.941	1022.15
617.14	944.45
617.34	1005.87
617.539	1010.52
617.738	951.04
617.938	1056.44
618.137	986.3
618.336	979.91
618.535	1021.37
618.734	1020.79
618.934	1013.62
619.133	1008.78
619.332	1032.41
619.531	999.86
619.73	1010.71
619.929	1041.52
620.128	1033.96
620.328	1057.41
620.527	994.83
620.726	984.17
620.925	1008
621.124	1008.39
621.323	997.73
621.522	967.9
621.721	970.42
621.92	971.58
622.119	1018.85
622.318	959.37
622.517	985.33
622.715	960.92
622.914	934.18
623.113	952.2
623.312	911.9
623.511	963.25
623.71	934.77
623.909	941.55
624.107	1013.04
624.306	913.26
624.505	908.03
624.704	933.41
624.902	922.95
625.101	990.37
625.3	952.78
625.499	905.7
625.697	909.97
625.896	919.85
626.095	943.68
626.293	886.52
626.492	924.11
626.69	938.45
626.889	928.37
627.088	973.71
627.286	916.17
627.485	886.52
627.683	910.16
627.882	892.92
628.08	844.48
628.279	867.15
628.477	945.03
628.676	856.3
628.874	936.9
629.073	851.65
629.271	878.19
629.469	907.06
629.668	868.5
629.866	853.59
630.065	834.6
630.263	892.53
630.461	889.04
630.66	878
630.858	902.6
631.056	908.61
631.254	898.73
631.453	860.75
631.651	909
631.849	889.82
632.047	889.43
632.245	876.25
632.444	896.99
632.642	899.5
632.84	902.02
633.038	889.62
633.236	834.79
633.434	866.57
633.632	855.14
633.83	836.34
634.028	901.64
634.227	886.52
634.425	939.42
634.623	880.13
634.821	900.47
635.019	895.24
635.216	889.04
635.414	893.5
635.612	908.22
635.81	870.83
636.008	944.84
636.206	885.55
636.404	891.75
636.602	894.27
636.8	879.55
636.997	926.63
637.195	937.67
637.393	906.87
637.591	967.7
637.789	907.45
637.986	923.14
638.184	917.33
638.382	930.7
638.58	905.32
638.777	965.38
638.975	895.05
639.173	918.1
639.37	920.04
639.568	900.28
639.765	918.49
639.963	889.62
640.161	923.14
640.358	924.88
640.556	851.26
640.753	859.59
640.951	846.61
641.148	888.46
641.346	854.55
641.543	882.84
641.741	888.85
641.938	847.97
642.136	856.49
642.333	888.65
642.531	917.33
642.728	873.54
642.925	874.32
643.123	869.28
643.32	889.43
643.517	859.98
643.715	861.92
643.912	860.17
644.109	883.23
644.306	881.49
644.504	822.78
644.701	884.97
644.898	872.77
645.095	853.39
645.293	872.38
645.49	863.47
645.687	869.67
645.884	856.69
646.081	770.86
646.278	813.87
646.475	816.19
646.672	809.02
646.87	815.42
647.067	810.77
647.264	810.77
647.461	764.27
647.658	779.38
647.855	818.52
648.052	794.11
648.249	729.59
648.446	772.79
648.642	781.12
648.839	747.41
649.036	778.8
649.233	740.05
649.43	747.22
649.627	733.07
649.824	793.33
650.021	725.13
650.217	771.44
650.414	768.92
650.611	783.64
650.808	804.76
651.004	800.11
651.201	811.16
651.398	856.49
651.595	774.54
651.791	736.76
651.988	799.92
652.185	739.47
652.381	798.76
652.578	748.96
652.775	777.44
652.971	774.15
653.168	765.82
653.364	798.56
653.561	703.82
653.757	743.15
653.954	763.11
654.15	735.01
654.347	803.02
654.543	764.66
654.74	699.94
654.936	713.89
655.133	743.73
655.329	745.09
655.525	756.13
655.722	766.01
655.918	670.49
656.115	738.31
656.311	664.29
656.507	614.5
656.704	593.38
656.9	645.11
657.096	626.32
657.292	627.68
657.489	722.61
657.685	656.35
657.881	691.23
658.077	662.94
658.273	704.79
658.47	763.3
658.666	690.45
658.862	716.61
659.058	697.43
659.254	767.37
659.45	717.38
659.646	726.49
659.842	700.33
660.038	761.75
660.234	682.31
660.43	694.52
660.626	775.31
660.822	729.2
661.018	757.29
661.214	716.8
661.41	692.78
661.606	761.36
661.802	757.68
661.998	723.39
662.194	702.27
662.39	746.44
662.586	698.78
662.781	746.83
662.977	731.72
663.173	746.64
663.369	741.79
663.564	720.68
663.76	754.19
663.956	721.26
664.152	742.18
664.347	648.6
664.543	723.58
664.739	723.19
664.934	632.13
665.13	660.42
665.326	750.32
665.521	718.54
665.717	673.21
665.912	664.49
666.108	615.66
666.304	690.64
666.499	686.19
666.695	600.75
666.89	663.33
667.086	752.26
667.281	698.39
667.477	733.07
667.672	707.31
667.867	685.03
668.063	698.2
668.258	634.46
668.454	683.09
668.649	753.22
668.844	682.51
669.04	715.83
669.235	657.13
669.43	667.39
669.626	620.12
669.821	675.53
670.016	625.55
670.211	653.64
670.407	643.56
670.602	699.56
670.797	642.59
670.992	700.91
671.187	636.2
671.382	702.85
671.578	643.76
671.773	667.01
671.968	608.5
672.163	663.33
672.358	673.59
672.553	612.37
672.748	611.21
672.943	736.37
673.138	643.76
673.333	694.71
673.528	623.22
673.723	650.34
673.918	641.04
674.113	629.61
674.308	710.79
674.503	669.14
674.698	665.65
674.892	661.58
675.087	659.84
675.282	653.06
675.477	596.29
675.672	667.98
675.867	618.76
676.061	604.43
676.256	607.53
676.451	623.03
676.646	650.73
676.84	584.47
677.035	600.55
677.23	593.77
677.424	618.57
677.619	663.33
677.814	662.36
678.008	668.94
678.203	600.94
678.397	598.23
678.592	637.56
678.787	713.7
678.981	620.51
679.176	624.38
679.37	622.06
679.565	597.45
679.759	609.46
679.954	644.92
680.148	675.73
680.342	687.93
680.537	656.16
680.731	580.6
680.926	627.29
681.12	627.29
681.314	644.53
681.509	626.71
681.703	622.83
681.897	640.66
682.092	590.67
682.286	613.15
682.48	686.38
682.674	637.75
682.869	619.73
683.063	632.91
683.257	644.73
683.451	593.38
683.645	626.9
683.839	612.18
684.034	624.96
684.228	676.69
684.422	569.75
684.616	602.88
684.81	637.17
685.004	597.06
685.198	628.06
685.392	662.16
685.586	597.65
685.78	670.3
685.974	627.68
686.168	617.02
686.362	660.42
686.556	566.26
686.75	548.43
686.944	533.9
687.138	547.66
687.331	484.5
687.525	500
687.719	418.62
687.913	477.33
688.107	487.21
688.301	449.04
688.494	513.75
688.688	466.48
688.882	461.25
689.076	444.2
689.269	490.89
689.463	555.02
689.657	508.33
689.85	494.38
690.044	502.32
690.238	501.16
690.431	510.46
690.625	517.63
690.818	571.49
691.012	562
691.205	571.88
691.399	528.67
691.593	556.96
691.786	590.09
691.98	631.75
692.173	637.36
692.366	613.92
692.56	621.48
692.753	661.97
692.947	600.94
693.14	663.33
693.333	671.46
693.527	625.16
693.72	646.08
693.914	621.09
694.107	641.43
694.3	650.73
694.493	622.64
694.687	662.55
694.88	628.06
695.073	712.93
695.266	691.81
695.46	690.64
695.653	721.06
695.846	729.39
696.039	650.73
696.232	694.13
696.425	748.96
696.618	729.97
696.812	720.68
697.005	783.45
697.198	869.09
697.391	807.28
697.584	785.77
697.777	855.91
697.97	823.75
698.163	877.03
698.356	835.18
698.549	892.53
698.742	865.4
698.935	831.5
699.127	866.37
699.32	847.97
699.513	843.51
699.706	857.46
699.899	915.78
700.092	854.94
700.285	876.25
700.477	855.14
700.67	903.96
700.863	918.68
701.056	971
701.248	951.82
701.441	984.75
701.634	949.68
701.826	1033.96
702.019	952.98
702.212	1011.68
702.404	977.97
702.597	946.97
702.79	991.53
702.982	995.6
703.175	1059.73
703.367	1051.98
703.56	1073.49
703.752	1150.99
703.945	1099.84
704.137	1085.89
704.33	1140.72
704.522	1133.36
704.715	1146.14
704.907	1184.89
705.1	1208.53
705.292	1225
705.484	1205.04
705.677	1237.21
705.869	1245.15
706.061	1249.41
706.254	1298.24
706.446	1257.55
706.638	1268.2
706.831	1346.87
707.023	1285.84
707.215	1403.83
707.407	1364.11
707.599	1352.87
707.792	1402.47
707.984	1368.57
708.176	1444.13
708.368	1407.51
708.56	1431.73
708.752	1440.64
708.944	1398.4
709.136	1455.17
709.329	1438.51
709.521	1532.48
709.713	1491.21
709.905	1530.73
710.097	1564.44
710.289	1528.21
710.481	1543.33
710.672	1581.11
710.864	1553.01
711.056	1580.53
711.248	1602.42
711.44	1632.64
711.632	1601.06
711.824	1608.62
712.016	1700.65
712.207	1694.45
712.399	1678.17
712.591	1784.54
712.783	1751.22
712.975	1761.29
713.166	1714.6
713.358	1750.64
713.55	1787.06
713.741	1814.77
713.933	1800.82
714.125	1777.18
714.316	1773.89
714.508	1863.4
714.7	1852.16
714.891	1842.67
715.083	1870.18
715.274	1897.69
715.466	1919.39
715.657	1929.27
715.849	1810.12
716.04	1880.64
716.232	1818.45
716.423	1869.4
716.615	1801.4
716.806	1791.71
716.998	1732.81
717.189	1689.02
717.381	1637.1
717.572	1565.41
717.763	1665.39
717.955	1601.84
718.146	1558.05
718.337	1557.66
718.528	1506.13
718.72	1501.86
718.911	1515.81
719.102	1442.19
719.293	1525.5
719.485	1492.95
719.676	1496.25
719.867	1500.7
720.058	1477.26
720.249	1492.37
720.44	1508.65
720.632	1579.56
720.823	1611.91
721.014	1734.17
721.205	1739.4
721.396	1827.17
721.587	1919.39
721.778	1927.14
721.969	1970.54
722.16	2031.38
722.351	2043
722.542	2111.97
722.733	2181.34
722.924	2068.19
723.115	2108.1
723.305	2073.61
723.496	2123.99
723.687	2027.11
723.878	2043.97
724.069	2025.95
724.26	2049.39
724.45	1980.61
724.641	1980.42
724.832	1992.24
725.023	2009.48
725.213	2005.03
725.404	1995.14
725.595	1982.36
725.785	1993.01
725.976	2053.27
726.167	2053.07
726.357	2071.67
726.548	2150.72
726.739	2056.56
726.929	2139.49
727.12	2186.76
727.31	2193.74
727.501	2134.06
727.691	2184.05
727.882	2183.27
728.072	2195.48
728.263	2213.5
728.453	2284.22
728.644	2262.52
728.834	2248.57
729.024	2194.32
729.215	2210.2
729.405	2268.72
729.596	2352.03
729.786	2351.83
729.976	2353
730.167	2349.51
730.357	2348.15
730.547	2362.3
730.737	2421.39
730.928	2444.44
731.118	2497.53
731.308	2396.01
731.498	2445.22
731.688	2517.29
731.879	2533.18
732.069	2599.44
732.259	2623.66
732.449	2638.58
732.639	2739.52
732.829	2728.09
733.019	2763.16
733.209	2867.59
733.399	2879.6
733.589	2957.1
733.779	2950.51
733.969	2998.37
734.159	3028.59
734.349	3053.78
734.539	3096.79
734.729	3125.27
734.919	3146
735.109	3209.16
735.299	3101.63
735.488	3184.75
735.678	3184.17
735.868	3176.03
736.058	3186.11
736.248	3165.57
736.437	3112.68
736.627	3123.33
736.817	3233.96
737.007	3190.18
737.196	3249.85
737.386	3219.24
737.576	3229.12
737.765	3301.39
737.955	3301.19
738.144	3400.97
738.334	3344.01
738.524	3246.36
738.713	3323.67
738.903	3278.14
739.092	3400.39
739.282	3365.13
739.471	3370.17
739.661	3417.44
739.85	3442.82
740.04	3439.14
740.229	3459.87
740.419	3486.42
740.608	3463.75
740.797	3505.4
740.987	3574.57
741.176	3586.39
741.365	3499.79
741.555	3465.1
741.744	3566.82
741.933	3513.54
742.123	3556.75
742.312	3605.96
742.501	3603.83
742.69	3616.03
742.88	3523.81
743.069	3671.25
743.258	3639.67
743.447	3667.76
743.636	3686.95
743.825	3661.95
744.014	3692.76
744.204	3707.29
744.393	3656.33
744.582	3750.88
744.771	3787.69
744.96	3690.82
745.149	3716.78
745.338	3708.26
745.527	3767.16
745.716	3705.93
745.905	3712.13
746.094	3788.08
746.283	3794.28
746.471	3735.19
746.66	3821.6
746.849	3797.96
747.038	3804.16
747.227	3747.2
747.416	3817.72
747.604	3720.66
747.793	3793.12
747.982	3762.12
748.171	3844.27
748.359	3818.69
748.548	3803.19
748.737	3821.21
748.926	3781.88
749.114	3684.04
749.303	3791.76
749.491	3765.41
749.68	3690.63
749.869	3794.86
750.057	3759.21
750.246	3775.88
750.434	3726.28
750.623	3757.08
750.811	3729.57
751	3785.37
751.188	3732.09
751.377	3744.1
751.565	3722.01
751.754	3671.83
751.942	3694.7
752.131	3764.06
752.319	3706.9
752.507	3687.53
752.696	3670.86
752.884	3741.58
753.072	3719.3
753.261	3745.46
753.449	3705.74
753.637	3668.73
753.825	3785.95
754.014	3683.65
754.202	3743.71
754.39	3761.93
754.578	3728.6
754.766	3629.21
754.955	3628.43
755.143	3734.61
755.331	3685.4
755.519	3663.7
755.707	3662.53
755.895	3636.96
756.083	3669.51
756.271	3624.95
756.459	3623.4
756.647	3685.78
756.835	3621.46
757.023	3616.81
757.211	3613.13
757.399	3545.9
757.587	3640.45
757.775	3564.11
757.963	3583.48
758.151	3604.6
758.339	3584.65
758.526	3491.45
758.714	3579.42
758.902	3388.96
759.09	3313.79
759.278	3101.83
759.465	2869.53
759.653	2461.88
759.841	2236.75
760.028	1929.08
760.216	1683.41
760.404	1586.53
760.591	1276.15
760.779	1071.55
760.967	970.42
761.154	793.33
761.342	814.06
761.529	818.13
761.717	865.4
761.905	864.44
762.092	897.57
762.28	864.44
762.467	858.43
762.655	780.35
762.842	815.8
763.029	834.79
763.217	832.27
763.404	807.09
763.592	876.84
763.779	779.96
763.966	881.87
764.154	916.55
764.341	986.69
764.528	978.17
764.716	1034.74
764.903	1107.98
765.09	1199.81
765.277	1221.51
765.465	1377.48
765.652	1417.2
765.839	1544.29
766.026	1676.43
766.213	1742.3
766.4	1828.13
766.588	2015.29
766.775	2065.28
766.962	2209.82
767.149	2246.43
767.336	2411.89
767.523	2386.51
767.71	2546.16
767.897	2632.38
768.084	2705.23
768.271	2770.13
768.458	2814.7
768.645	2921.64
768.832	2938.5
769.019	2914.09
769.206	2922.61
769.392	3033.05
769.579	3082.07
769.766	3072.96
769.953	3083.81
770.14	3146.78
770.327	3138.06
770.513	3164.99
770.7	3244.81
770.887	3158.4
771.073	3219.05
771.26	3205.68
771.447	3182.43
771.634	3133.02
771.82	3233.58
772.007	3171.38
772.193	3230.09
772.38	3202
772.567	3182.81
772.753	3229.31
772.94	3256.83
773.126	3235.51
773.313	3227.76
773.499	3257.41
773.686	3252.95
773.872	3198.12
774.059	3213.23
774.245	3219.43
774.432	3169.83
774.618	3121.59
774.804	3148.13
774.991	3103.38
775.177	3177
775.363	3221.76
775.55	3163.63
775.736	3108.22
775.922	3164.8
776.109	3196.76
776.295	3121.98
776.481	3193.66
776.667	3187.08
776.853	3169.45
777.04	3084.39
777.226	3096.98
777.412	3198.9
777.598	3085.55
777.784	3085.36
777.97	3081.29
778.156	3139.61
778.342	3132.05
778.528	3090.78
778.715	3035.95
778.901	3057.07
779.087	3071.22
779.272	3024.52
779.458	2983.84
779.644	3063.85
779.83	2997.59
780.016	3112.1
780.202	3005.34
780.388	2997.59
780.574	2944.12
780.76	2970.66
780.946	3043.32
781.131	2999.34
781.317	2989.07
781.503	2958.65
781.689	2956.71
781.874	3054.75
782.06	2961.17
782.246	2951.48
782.432	2936.76
782.617	2962.72
782.803	2990.62
782.989	2903.82
783.174	2933.27
783.36	2891.42
783.545	2930.36
783.731	2904.01
783.916	2842.21
784.102	2907.89
784.288	2856.35
784.473	2869.14
784.659	2865.84
784.844	2872.43
785.029	2876.11
785.215	2843.37
785.4	2808.11
785.586	2891.42
785.771	2803.65
785.956	2836.78
786.142	2815.08
786.327	2775.17
786.512	2803.07
786.698	2779.24
786.883	2728.87
787.068	2732.74
787.254	2817.6
787.439	2724.99
787.624	2719.37
787.809	2722.47
787.994	2695.15
788.18	2755.99
788.365	2639.35
788.55	2685.27
788.735	2675.2
788.92	2676.75
789.105	2668.03
789.29	2658.73
789.475	2583.94
789.66	2617.85
789.845	2605.84
790.03	2592.08
790.215	2619.59
790.4	2604.67
790.585	2648.27
790.77	2615.14
790.955	2524.46
791.14	2566.7
791.325	2651.37
791.51	2515.74
791.695	2590.34
791.879	2579.87
792.064	2499.08
792.249	2610.49
792.434	2543.45
792.618	2578.32
792.803	2613.59
792.988	2542.67
793.173	2561.66
793.357	2605.84
793.542	2544.61
793.727	2560.5
793.911	2594.21
794.096	2559.53
794.281	2616.69
794.465	2676.17
794.65	2597.12
794.834	2642.65
795.019	2660.28
795.203	2656.98
795.388	2656.98
795.572	2665.12
795.757	2643.62
795.941	2624.05
796.126	2604.87
796.31	2588.2
796.494	2603.7
796.679	2554.3
796.863	2564.57
797.048	2673.84
797.232	2592.47
797.416	2608.35
797.601	2587.04
797.785	2699.8
797.969	2678.88
798.153	2603.9
798.338	2649.43
798.522	2687.6
798.706	2673.45
798.89	2648.27
799.074	2737.78
799.258	2710.07
799.443	2652.53
799.627	2651.56
799.811	2657.76
799.995	2612.23
800.179	2634.12
800.363	2623.08
800.547	2634.12
800.731	2688.76
800.915	2547.13
801.099	2592.08
801.283	2596.54
801.467	2622.3
801.651	2616.1
801.835	2656.4
802.019	2651.75
802.202	2613.59
802.386	2573.87
802.57	2567.47
802.754	2612.04
802.938	2548.29
803.121	2579.87
803.305	2648.85
803.489	2651.75
803.673	2651.56
803.856	2621.92
804.04	2618.43
804.224	2594.02
804.407	2563.6
804.591	2591.11
804.775	2580.07
804.958	2618.04
805.142	2710.07
805.326	2595.95
805.509	2652.92
805.693	2619.59
805.876	2689.92
806.06	2614.94
806.243	2631.8
806.427	2681.59
806.61	2673.65
806.794	2625.02
806.977	2667.64
807.16	2641.29
807.344	2660.67
807.527	2650.98
807.71	2583.17
807.894	2643.81
808.077	2652.92
808.26	2632.19
808.444	2584.14
808.627	2619.4
808.81	2544.03
808.993	2528.72
809.177	2503.34
809.36	2551.39
809.543	2538.99
809.726	2448.13
809.909	2462.85
810.092	2463.82
810.276	2449.29
810.459	2472.15
810.642	2420.61
810.825	2409.76
811.008	2429.72
811.191	2314.83
811.374	2364.62
811.557	2344.86
811.74	2395.62
811.923	2282.28
812.106	2322.38
812.289	2265.62
812.472	2225.12
812.654	2232.29
812.837	2224.15
813.02	2154.21
813.203	2116.43
813.386	2017.04
813.569	2007.93
813.751	1959.88
813.934	2035.83
814.117	1990.3
814.3	1918.61
814.482	1901.56
814.665	1859.52
814.848	1857.78
815.03	1766.91
815.213	1749.67
815.396	1752.57
815.578	1728.74
815.761	1726.61
815.943	1770.01
816.126	1631.87
816.309	1632.06
816.491	1559.6
816.674	1510.78
816.856	1600.87
817.039	1606.68
817.221	1633.42
817.403	1588.66
817.586	1604.94
817.768	1611.33
817.951	1537.9
818.133	1547.59
818.315	1543.71
818.498	1617.72
818.68	1626.64
818.862	1618.31
819.045	1629.74
819.227	1621.99
819.409	1597.58
819.591	1647.95
819.774	1632.06
819.956	1584.59
820.138	1682.63
820.32	1633.81
820.502	1740.75
820.684	1806.43
820.866	1794.81
821.048	1805.66
821.231	1839.76
821.413	1871.92
821.595	1840.15
821.777	1870.18
821.959	1787.25
822.141	1843.44
822.323	1740.56
822.505	1672.56
822.686	1652.41
822.868	1562.7
823.05	1435.8
823.232	1408.67
823.414	1366.24
823.596	1443.93
823.778	1418.36
823.96	1489.85
824.141	1427.85
824.323	1534.03
824.505	1589.24
824.687	1620.44
824.868	1666.16
825.05	1758.77
825.232	1818.25
825.413	1858.17
825.595	1782.22
825.777	1719.25
825.958	1794.03
826.14	1773.11
826.321	1799.85
826.503	1790.35
826.685	1815.93
826.866	1807.02
827.048	1825.23
827.229	1719.05
827.411	1721.77
827.592	1702
827.773	1655.51
827.955	1635.74
828.136	1657.25
828.318	1571.61
828.499	1608.42
828.68	1581.88
828.862	1608.23
829.043	1616.56
829.224	1589.05
829.406	1562.31
829.587	1584.01
829.768	1566.96
829.949	1624.31
830.131	1647.17
830.312	1677.21
830.493	1581.69
830.674	1632.84
830.855	1576.65
831.036	1614.43
831.218	1690.38
831.399	1689.6
831.58	1629.54
831.761	1616.76
831.942	1648.92
832.123	1606.87
832.304	1565.03
832.485	1617.34
832.666	1602.61
832.847	1667.32
833.028	1601.26
833.209	1593.31
833.389	1625.09
833.57	1575.29
833.751	1581.49
833.932	1633.42
834.113	1612.88
834.294	1607.65
834.475	1633.42
834.655	1678.76
834.836	1667.71
835.017	1656.86
835.198	1583.63
835.378	1636.71
835.559	1657.83
835.74	1658.22
835.92	1645.43
836.101	1609.59
836.281	1686.31
836.462	1686.31
836.643	1696.58
836.823	1710.92
837.004	1738.62
837.184	1721.77
837.365	1706.65
837.545	1707.43
837.726	1678.95
837.906	1757.22
838.087	1713.63
838.267	1694.06
838.448	1667.91
838.628	1675.66
838.808	1688.44
838.989	1727.39
839.169	1676.24
839.349	1715.18
839.53	1751.02
839.71	1697.94
839.89	1697.94
840.07	1723.51
840.251	1706.07
840.431	1727.77
840.611	1704.91
840.791	1678.95
840.971	1701.62
841.151	1649.69
841.332	1657.06
841.512	1711.5
841.692	1642.91
841.872	1716.54
842.052	1654.34
842.232	1715.57
842.412	1650.27
842.592	1672.17
842.772	1670.04
842.952	1695.22
843.132	1628.19
843.312	1645.04
843.492	1660.54
843.672	1693.48
843.851	1603
844.031	1671.78
844.211	1644.66
844.391	1627.22
844.571	1659.38
844.751	1631.09
844.93	1634.39
845.11	1606.87
845.29	1632.45
845.47	1677.01
845.649	1616.17
845.829	1672.36
846.009	1635.16
846.188	1650.27
846.368	1599.32
846.547	1641.17
846.727	1667.71
846.907	1611.72
847.086	1639.81
847.266	1645.24
847.445	1647.95
847.625	1609.59
847.804	1600.68
847.984	1612.11
848.163	1603.58
848.343	1577.81
848.522	1615.59
848.701	1619.47
848.881	1569.29
849.06	1600.29
849.239	1583.24
849.419	1616.37
849.598	1504.38
849.777	1518.72
849.957	1511.75
850.136	1482.68
850.315	1434.05
850.494	1460.4
850.674	1441.61
850.853	1541.58
851.032	1502.64
851.211	1508.65
851.39	1520.08
851.569	1435.8
851.748	1448.2
851.927	1546.43
852.107	1482.49
852.286	1471.06
852.465	1490.82
852.644	1529.57
852.823	1516.01
853.002	1481.33
853.181	1474.74
853.359	1496.05
853.538	1448
853.717	1498.76
853.896	1367.21
854.075	1306.76
854.254	1308.12
854.433	1262.78
854.611	1314.51
854.79	1224.42
854.969	1305.21
855.148	1318.77
855.327	1280.22
855.505	1335.24
855.684	1342.41
855.863	1357.13
856.041	1312.77
856.22	1355.2
856.399	1355.39
856.577	1446.06
856.756	1437.73
856.934	1515.81
857.113	1530.93
857.291	1464.28
857.47	1405.18
857.648	1442
857.827	1441.8
858.005	1464.28
858.184	1393.17
858.362	1478.23
858.541	1406.35
858.719	1444.71
858.898	1411.19
859.076	1397.05
859.254	1469.51
859.433	1412.35
859.611	1383.1
859.789	1372.83
859.967	1442.77
860.146	1459.43
860.324	1337.57
860.502	1387.75
860.68	1362.95
860.859	1359.85
861.037	1357.13
861.215	1361.2
861.393	1372.83
861.571	1353.84
861.749	1336.21
861.927	1382.9
862.105	1363.72
862.283	1373.41
862.461	1329.82
862.639	1305.99
862.817	1343.57
862.995	1357.52
863.173	1318.77
863.351	1320.32
863.529	1345.9
863.707	1387.17
863.885	1373.22
864.063	1258.71
864.241	1302.11
864.418	1377.67
864.596	1301.34
864.774	1283.32
864.952	1287
865.129	1298.82
865.307	1278.28
865.485	1239.92
865.663	1300.37
865.84	1240.5
866.018	1245.34
866.196	1130.06
866.373	1128.51
866.551	1109.91
866.728	1068.06
866.906	1078.72
867.084	1152.54
867.261	1187.8
867.439	1167.26
867.616	1224.81
867.794	1178.69
867.971	1209.89
868.149	1194.19
868.326	1254.64
868.503	1206.79
868.681	1200.39
868.858	1198.65
869.035	1163.97
869.213	1224.61
869.39	1174.82
869.567	1264.52
869.745	1184.89
869.922	1214.15
870.099	1224.81
870.276	1261.04
870.454	1241.47
870.631	1216.86
870.808	1190.32
870.985	1259.87
871.162	1258.71
871.339	1213.18
871.517	1160.87
871.694	1174.43
871.871	1183.54
872.048	1185.86
872.225	1158.74
872.402	1183.54
872.579	1113.01
872.756	1161.26
872.933	1134.13
873.11	1148.47
873.287	1178.69
873.463	1154.28
873.64	1125.22
873.817	1194.97
873.994	1164.36
874.171	1148.47
874.348	1160.48
874.524	1100.42
874.701	1141.11
874.878	1071.75
875.055	1140.53
875.231	1118.83
875.408	1160.09
875.585	1088.79
875.762	1124.83
875.938	1091.12
876.115	1115.53
876.291	1095.96
876.468	1107.59
876.645	1096.54
876.821	1105.84
876.998	1069.03
877.174	1126.96
877.351	1086.28
877.527	1076.59
877.704	1118.44
877.88	1081.24
878.057	1065.35
878.233	1125.41
878.409	1049.46
878.586	1097.9
878.762	1059.54
878.938	1043.07
879.115	988.82
879.291	1023.5
879.467	1006.65
879.644	1075.62
879.82	1063.8
879.996	1033.19
880.172	987.66
880.349	1046.56
880.525	1067.29
880.701	971.38
880.877	986.88
881.053	1029.12
881.229	1044.23
881.405	1065.55
881.581	999.09
881.757	1023.89
881.933	1063.41
882.109	1016.53
882.285	1013.81
882.461	938.25
882.637	1016.14
882.813	996.57
882.989	1015.56
883.165	1055.28
883.341	987.47
883.517	1052.95
883.693	1033.96
883.869	1046.17
884.044	1000.25
884.22	1034.16
884.396	1050.24
884.572	1014.98
884.747	1066.51
884.923	1046.17
885.099	1012.26
885.275	1062.64
885.45	1006.26
885.626	990.37
885.801	964.8
885.977	1011.49
886.153	938.25
886.328	1018.46
886.504	994.44
886.679	1023.7
886.855	975.26
887.03	1011.49
887.206	1042.68
887.381	1026.02
887.557	1009.94
887.732	1018.66
887.908	1034.35
888.083	1041.91
888.258	982.23
888.434	1020.01
888.609	982.62
888.784	1042.68
888.96	1014.2
889.135	962.28
889.31	988.24
889.485	1009.75
889.661	961.7
889.836	1032.61
890.011	1038.42
890.186	995.8
890.361	1004.51
890.537	995.8
890.712	990.37
890.887	1002.19
891.062	1041.71
891.237	1028.15
891.412	980.1
891.587	1008.78
891.762	1016.72
891.937	1021.76
892.112	966.15
892.287	996.38
892.462	933.6
892.637	934.38
892.812	921.2
892.987	937.28
893.161	903.57
893.336	917.91
893.511	922.56
893.686	898.92
893.861	916.94
894.035	923.92
894.21	935.73
894.385	857.65
894.56	903.38
894.734	820.07
894.909	831.11
895.084	817.94
895.258	813.09
895.433	804.18
895.608	793.52
895.782	772.99
895.957	767.76
896.131	772.6
896.306	684.25
896.48	710.41
896.655	708.47
896.829	663.71
897.004	601.71
897.178	674.95
897.353	634.07
897.527	699.94
897.701	675.73
897.876	624.96
898.05	707.69
898.224	668.17
898.399	703.82
898.573	635.43
898.747	556.38
898.921	602.49
899.096	507.36
899.27	541.27
899.444	545.33
899.618	580.4
899.792	582.15
899.967	586.41
900.141	620.51
900.315	564.32
900.489	559.48
900.663	566.65
900.837	590.09
901.011	545.14
901.185	612.56
901.359	554.05
901.533	591.06
901.707	591.64
901.881	599.97
902.055	537.78
902.229	549.79
902.403	616.05
902.576	596.68
902.75	588.54
902.924	695.49
903.098	642.21
903.272	685.8
903.446	735.01
903.619	691.23
903.793	736.76
903.967	696.65
904.14	777.83
904.314	742.37
904.488	725.13
904.661	738.89
904.835	735.21
905.009	781.51
905.182	815.42
905.356	759.81
905.529	743.73
905.703	716.41
905.876	683.48
906.05	665.07
906.223	660.61
906.397	631.36
906.57	596.48
906.744	589.12
906.917	549.02
907.09	573.23
907.264	577.5
907.437	546.3
907.61	514.92
907.784	551.92
907.957	561.8
908.13	497.48
908.304	554.44
908.477	494.38
908.65	540.49
908.823	483.53
908.996	544.75
909.17	519.18
909.343	501.35
909.516	509.1
909.689	479.85
909.862	478.68
910.035	517.43
910.208	480.04
910.381	484.11
910.554	544.37
910.727	521.89
910.9	488.76
911.073	501.16
911.246	553.08
911.419	571.49
911.592	528.67
911.765	512.01
911.938	475.97
912.11	500.19
912.283	517.05
912.456	551.53
912.629	512.01
912.802	485.27
912.974	441.1
913.147	389.95
913.32	368.25
913.493	417.65
913.665	412.23
913.838	457.95
914.01	445.17
914.183	466.28
914.356	443.62
914.528	479.46
914.701	522.47
914.873	496.7
915.046	440.9
915.218	394.02
915.391	354.3
915.563	371.35
915.736	435.87
915.908	437.03
916.081	443.04
916.253	419.4
916.425	444.39
916.598	431.02
916.77	414.36
916.942	410.87
917.115	350.81
917.287	435.87
917.459	382.78
917.632	362.24
917.804	320.2
917.976	402.93
918.148	434.51
918.32	438.19
918.493	445.36
918.665	475.97
918.837	429.28
919.009	516.08
919.181	488.95
919.353	447.49
919.525	452.72
919.697	466.87
919.869	459.31
920.041	506
920.213	563.55
920.385	505.03
920.557	455.82
920.729	499.8
920.901	471.71
921.073	491.67
921.244	459.5
921.416	500.58
921.588	480.82
921.76	430.64
921.932	508.33
922.103	482.75
922.275	476.17
922.447	460.86
922.619	420.56
922.79	443.62
922.962	439.74
923.134	474.03
923.305	395.95
923.477	408.94
923.648	395.18
923.82	433.54
923.991	328.14
924.163	363.6
924.335	371.54
924.506	385.1
924.677	438.77
924.849	385.1
925.02	385.69
925.192	416.49
925.363	386.85
925.535	399.44
925.706	352.75
925.877	439.94
926.049	370.38
926.22	400.22
926.391	382.39
926.562	424.44
926.734	373.09
926.905	402.35
927.076	358.17
927.247	371.16
927.419	305.28
927.59	308.96
927.761	332.41
927.932	301.41
928.103	315.94
928.274	283.39
928.445	245.8
928.616	276.41
928.787	268.08
928.958	285.91
929.129	293.66
929.3	256.07
929.471	257.23
929.642	196.59
929.813	157.84
929.984	251.03
930.155	159.58
930.326	207.63
930.496	180.31
930.667	118.12
930.838	186.13
931.009	110.18
931.18	138.66
931.35	138.85
931.521	171.01
931.692	91.58
931.863	55.54
932.033	111.92
932.204	119.28
932.374	125.68
932.545	81.7
932.716	103.78
932.886	104.17
933.057	34.23
933.227	38.49
933.398	142.15
933.568	51.08
933.739	44.3
933.909	33.26
934.08	86.35
934.25	25.51
934.421	28.03
934.591	80.15
934.761	50.89
934.932	-7.23
935.102	40.04
935.272	13.3
935.443	37.52
935.613	0.9
935.783	51.47
935.953	30.93
936.123	151.25
936.294	7.1
936.464	19.89
936.634	34.42
936.804	24.35
936.974	12.34
937.144	53.99
937.314	53.02
937.484	23.38
937.655	-4.91
937.825	65.23
937.995	-0.06
938.165	53.02
938.334	27.64
938.504	57.28
938.674	50.12
938.844	58.83
939.014	102.04
939.184	71.23
939.354	132.65
939.524	132.46
939.694	88.48
939.863	69.88
940.033	153.38
940.203	124.32
940.373	114.63
940.542	127.42
940.712	76.66
940.882	114.63
941.051	115.99
941.221	105.33
941.391	143.89
941.56	74.33
941.73	39.85
941.899	185.55
942.069	68.33
942.238	113.67
942.408	56.12
942.577	112.7
942.747	87.9
942.916	52.63
943.086	64.65
943.255	96.81
943.425	67.36
943.594	38.1
943.763	17.95
943.933	29.38
944.102	-6.65
944.271	55.54
944.441	72.2
944.61	50.5
944.779	67.75
944.948	121.03
945.117	42.56
945.287	20.09
945.456	-15.37
945.625	30.16
945.794	89.83
945.963	45.66
946.132	76.85
946.301	30.16
946.47	96.81
946.639	31.9
946.808	17.95
946.977	79.57
947.146	98.17
947.315	49.15
947.484	87.9
947.653	42.37
947.822	2.65
947.991	7.49
948.16	99.52
948.329	122
948.498	54.18
948.666	69.88
948.835	84.02
949.004	10.2
949.173	42.37
949.341	67.55
949.51	53.6
949.679	89.83
949.847	63.87
950.016	146.99
950.185	98.55
950.353	37.72
950.522	31.71
950.69	118.12
950.859	76.08
951.028	68.13
951.196	48.37
951.365	35
951.533	52.44
951.701	82.47
951.87	89.45
952.038	18.34
952.207	78.98
952.375	113.08
952.543	36.17
952.712	54.57
952.88	47.79
953.048	131.68
953.217	83.44
953.385	87.51
953.553	105.33
953.721	34.23
953.89	61.55
954.058	22.8
954.226	48.76
954.394	65.42
954.562	17.95
954.73	33.45
954.898	64.07
955.067	100.1
955.235	37.13
955.403	79.18
955.571	121.61
955.739	82.67
955.907	43.92
956.075	41.59
956.243	14.08
956.41	79.95
956.578	15.82
956.746	22.02
956.914	66.2
957.082	97.97
957.25	100.88
957.418	54.77
957.585	71.04
957.753	102.04
957.921	50.31
958.089	60.97
958.256	73.95
958.424	91.77
958.592	85.57
958.759	40.43
958.927	121.61
959.095	36.55
959.262	65.42
959.43	46.05
959.597	51.67
959.765	40.23
959.932	22.6
960.1	109.4
960.267	78.98
960.435	85.96
960.602	75.88
960.77	52.05
960.937	28.22
961.104	66.2
961.272	31.71
961.439	49.34
961.606	72.78
961.774	90.8
961.941	47.6
962.108	50.5
962.275	88.67
962.443	94.87
962.61	103.2
962.777	137.88
962.944	110.37
963.111	104.37
963.278	95.07
963.446	91.97
963.613	85.57
963.78	90.42
963.947	113.67
964.114	89.83
964.281	146.8
964.448	109.21
964.615	85.38
964.782	70.65
964.949	113.86
965.116	104.95
965.282	120.25
965.449	73.56
965.616	48.37
965.783	94.1
965.95	99.52
966.117	53.22
966.283	71.04
966.45	119.48
966.617	84.6
966.784	127.61
966.95	109.6
967.117	116.57
967.284	63.48
967.45	93.52
967.617	148.54
967.784	121.41
967.95	162.3
968.117	84.02
968.283	132.85
968.45	193.3
968.616	109.79
968.783	130.52
968.949	124.13
969.116	164.81
969.282	98.94
969.449	128.97
969.615	106.69
969.781	71.23
969.948	77.43
970.114	63.48
970.28	181.86
970.447	101.27
970.613	148.73
970.779	116.57
970.945	120.83
971.112	104.95
971.278	87.9
971.444	130.91
971.61	145.63
971.776	106.11
971.942	121.61
972.108	114.05
972.275	113.08
972.441	119.09
972.607	163.46
972.773	92.74
972.939	102.62
973.105	82.86
973.271	64.45
973.437	104.56
973.602	95.84
973.768	124.71
973.934	109.6
974.1	130.13
974.266	33.84
974.432	79.37
974.598	77.43
974.763	105.53
974.929	90.03
975.095	154.35
975.261	84.99
975.426	62.9
975.592	87.7
975.758	121.22
975.923	25.32
976.089	72.01
976.255	130.52
976.42	79.37
976.586	109.21
976.751	133.43
976.917	159.39
977.082	138.46
977.248	58.83
977.413	25.12
977.579	57.09
977.744	78.6
977.91	72.4
978.075	90.8
978.24	115.6
978.406	75.3
978.571	61.55
978.736	54.18
978.902	95.45
979.067	40.43
979.232	49.34
979.397	79.37
979.563	133.04
979.728	62.71
979.893	90.42
980.058	60.77
980.223	126.45
980.388	101.85
980.554	78.98
980.719	65.03
980.884	94.48
981.049	96.81
981.214	72.98
981.379	134.98
981.544	78.79
981.709	96.62
981.874	85.18
982.039	76.66
982.204	103.78
982.368	78.6
982.533	66.78
982.698	136.33
982.863	122.38
983.028	52.63
983.193	106.69
983.357	101.07
983.522	78.6
983.687	84.02
983.852	94.48
984.016	71.23
984.181	104.37
984.346	129.75
984.51	104.75
984.675	91.97
984.839	88.67
985.004	96.81
985.168	141.76
985.333	103.2
985.498	84.8
985.662	96.81
985.827	108.82
985.991	89.64
986.155	91
986.32	129.16
986.484	128.39
986.649	72.4
986.813	58.83
986.977	78.79
987.142	69.49
987.306	49.92
987.47	69.88
987.634	71.43
987.799	117.35
987.963	90.03
988.127	114.25
988.291	159.78
988.455	110.95
988.62	85.18
988.784	102.23
988.948	116.96
989.112	55.54
989.276	101.65
989.44	88.67
989.604	59.22
989.768	79.57
989.932	147.96
990.096	63.29
990.26	43.53
990.424	59.61
990.588	74.14
990.752	144.47
990.915	115.22
991.079	87.32
991.243	75.3
991.407	82.67
991.571	63.68
991.734	101.07
991.898	82.86
992.062	143.5
992.226	84.99
992.389	52.63
992.553	23.57
992.717	56.9
992.88	88.67
993.044	71.82
993.207	58.83
993.371	70.27
993.535	110.18
993.698	87.51
993.862	81.89
994.025	89.64
994.189	68.33
994.352	104.17
994.515	89.83
994.679	105.53
994.842	49.53
995.006	78.79
995.169	50.12
995.332	58.06
995.496	93.32
995.659	35.78
995.822	72.01
995.985	78.79
996.149	93.71
996.312	69.68
996.475	139.63
996.638	73.17
996.801	129.94
996.964	137.11
997.128	59.42
997.291	68.72
997.454	74.53
997.617	27.64
997.78	108.82
997.943	85.96
998.106	103.78
998.269	47.02
998.432	58.25
998.595	84.41
998.758	7.88
998.92	31.9
999.083	13.89
999.246	66
999.409	28.42
999.572	25.9
999.735	30.93
999.897	88.09
1000.06	48.18
1000.223	33.45
1000.386	98.36
1000.548	78.98
1000.711	73.95
1000.874	79.95
1001.036	27.45
1001.199	91.97
1001.361	48.76
1001.524	72.01
1001.687	120.83
1001.849	35.58
1002.012	81.7
1002.174	61.35
1002.337	71.82
1002.499	60.97
1002.661	101.65
1002.824	27.25
1002.986	30.74
1003.149	38.1
1003.311	18.15
1003.473	121.41
1003.636	47.21
1003.798	68.52
1003.96	75.88
1004.123	60
1004.285	26.29
1004.447	67.36
1004.609	55.15
1004.771	101.07
1004.933	-14.01
1005.096	31.13
1005.258	12.34
1005.42	36.55
1005.582	95.84
1005.744	85.57
1005.906	7.69
1006.068	54.18
1006.23	-7.62
1006.392	25.7
1006.554	18.73
1006.716	93.9
1006.878	51.86
1007.04	14.08
1007.202	27.84
1007.363	56.7
1007.525	64.26
1007.687	51.28
1007.849	102.04
1008.011	16.79
1008.172	18.54
1008.334	31.13
1008.496	59.42
1008.658	-10.33
1008.819	35.39
1008.981	18.54
1009.143	11.75
1009.304	-8.4
1009.466	60
1009.627	103.01
1009.789	147.96
1009.95	58.45
1010.112	14.27
1010.273	35.39
1010.435	25.51
1010.596	47.79
1010.758	24.74
1010.919	4.97
1011.081	11.95
1011.242	12.34
1011.403	57.48
1011.565	27.45
1011.726	38.3
1011.887	-16.15
1012.049	19.12
1012.21	34.81
1012.371	88.09
1012.532	-44.24
1012.693	50.5
1012.855	19.12
1013.016	12.92
1013.177	43.72
1013.338	32.48
1013.499	102.43
1013.66	59.42
1013.821	63.87
1013.982	62.13
1014.143	36.75
1014.304	12.34
1014.465	59.8
1014.626	73.56
1014.787	0.9
1014.948	105.72
1015.109	-16.15
1015.27	73.37
1015.431	15.63
1015.592	22.02
1015.752	66
1015.913	38.1
1016.074	33.65
1016.235	41.01
1016.395	33.07
1016.556	47.6
1016.717	7.3
1016.877	69.68
1017.038	9.04
1017.199	41.78
1017.359	38.88
1017.52	46.24
1017.681	18.15
1017.841	14.08
1018.002	17.18
1018.162	33.45
1018.323	61.16
1018.483	18.92
1018.644	23.19
1018.804	19.5
1018.964	1.49
1019.125	12.72
1019.285	45.47
1019.446	-16.53
1019.606	-6.46
1019.766	-46.95
1019.926	57.48
1020.087	29.97
1020.247	-31.26
1020.407	22.02
1020.567	74.33
1020.728	48.57
1020.888	-26.03
1021.048	2.45
1021.208	-3.75
1021.368	-5.68
1021.528	76.08
1021.688	44.5
1021.848	41.4
1022.008	24.74
1022.168	25.12
1022.328	54.18
1022.488	69.49
1022.648	31.52
1022.808	23.38
1022.968	46.82
1023.128	2.26
1023.288	-12.46
1023.448	40.43
1023.608	45.47
1023.767	44.5
1023.927	3.81
1024.087	20.86
1024.247	-16.15
1024.406	10.2
1024.566	-20.99
1024.726	-7.62
1024.885	25.9
1025.045	37.33
1025.205	24.35
1025.364	10.01
1025.524	53.02
1025.683	24.93
1025.843	25.32
1026.003	18.15
1026.162	77.43
1026.321	54.57
1026.481	39.85
1026.64	8.07
1026.8	20.47
1026.959	23.57
1027.119	26.67
1027.278	7.49
1027.437	-4.33
1027.597	18.15
1027.756	25.51
1027.915	16.6
1028.074	24.54
1028.234	10.2
1028.393	37.91
1028.552	-0.45
1028.711	-32.61
1028.87	50.5
1029.03	-14.01
1029.189	18.54
1029.348	-12.08
1029.507	-5.3
1029.666	29
1029.825	-20.99
1029.984	2.84
1030.143	29.58
1030.302	13.69
1030.461	-40.56
1030.62	16.4
1030.779	39.46
1030.938	10.2
1031.097	-43.27
1031.255	49.53
1031.414	55.54
1031.573	37.91
1031.732	-16.34
1031.891	14.08
1032.049	47.98
1032.208	45.66
1032.367	-16.34
1032.525	1.68
1032.684	-15.37
1032.843	-8.2
1033.001	-43.08
1033.16	153.58
1033.319	26.09
1033.477	59.03
1033.636	0.71
1033.794	-34.55
1033.953	26.09
1034.111	33.45
1034.27	4.2
1034.428	31.13
1034.587	3.23
1034.745	35
1034.903	9.82
1035.062	23.19
1035.22	-35.91
1035.378	34.23
1035.537	-1.42
1035.695	24.54
1035.853	10.01
1036.011	31.32
1036.17	4.97
1036.328	-33.97
1036.486	26.29
1036.644	31.52
1036.802	-49.28
1036.96	-28.35
1037.119	20.09
1037.277	-8.98
1037.435	-18.86
1037.593	-7.04
1037.751	-14.6
1037.909	26.09
1038.067	26.09
